APL,FCR,FDS,FDP,ED,EI,ECU,ECR
0.000585653015380731,0.00318880328037683,0.00179813148337776,0.0481844259032496,-0.00223054571738249,0.000403303863622566,0.0004971146790687,0.0433216609349433
0.000976702215249052,0.00357473607279072,0.00379402827209298,0.0484987267585617,-0.00123529660766327,0.000420231024370962,0.00059106447198106,0.0727026242661868
0.00134710780491619,0.00393856989208319,0.00572428763932919,0.048709951269792,-0.000272242865214283,0.000438244040811214,0.000678765171149462,0.101030345572563
0.00169398800197985,0.00427741076989252,0.00757669973418274,0.0488089885706819,0.00065196856514713,0.000457617711614108,0.000759517848377375,0.128100531421523
0.00201479848329441,0.00458871076565577,0.00934033613207703,0.0487878298260491,0.00153127376715783,0.000478662785772568,0.000832725680431882,0.153727006537902
0.00230737531167528,0.00487030809540136,0.0110057068869263,0.04863976498685,0.00236028463389789,0.000501723883631946,0.00089790451968964,0.177744622751301
0.00256996755038584,0.0051204561389782,0.0125648707383891,0.0483595611240909,0.00313436202075083,0.000527176166550571,0.000954690403043448,0.200011575092005
0.00280125898905388,0.00533784093060001,0.0140114974251822,0.0479436156717645,0.003849668273199,0.000555420720178018,0.00100284387328735,0.220411092406295
0.00300037909388381,0.00552158760890396,0.0153408844706754,0.0473900798484812,0.00450319938112179,0.00058687868136603,0.00104225119900674,0.23885251235232
0.00316690373082423,0.00567125689632363,0.0165499328279577,0.0466989497480175,0.00509279773182896,0.000621984197209739,0.00107292271802942,0.255271777334152
0.00330084635720494,0.00578683290802872,0.0176370863507872,0.0458721243592048,0.00561714666949543,0.000661176348147209,0.0010949885791691,0.269631396283872
0.00340264040669574,0.00586870351738251,0.0186022401328415,0.0449134303925584,0.00607574818550094,0.000704890186769639,0.00110869214843047,0.281919913966042
0.00347311371226395,0.00591763434793991,0.0194466231892304,0.0438286129442959,0.0064688853469759,0.000753547038665265,0.00111438134137981,0.292150927244029
0.00351345602999155,0.00593473739988723,0.020172661623232,0.0426252897345186,0.00679757147708184,0.000807544203459579,0.00111249816783338,0.300361691722119
0.00352518094857769,0.00592143535122686,0.0207838288814769,0.0413128666583353,0.00706348848895206,0.000867244210560488,0.00110356681391923,0.306611370182893
0.00351008361748424,0.00587942264221381,0.0212844896636993,0.0399024141231148,0.00726891703833686,0.000932963826806194,0.0010881806223556,0.310978983222798
0.00347019576456291,0.0058106245077195,0.0216797434534555,0.0384065063556728,0.00741666123936061,0.00100496306683358,0.00106698835354842,0.313561130027226
0.00340773940186272,0.00571715513313514,0.0219752726554614,0.0368390284215167,0.00750997056833396,0.00108343450158082,0.00104068011295273,0.314469551333304
0.00332508046396106,0.00560127605793374,0.0221771992714383,0.0352149570232007,0.007552461289117,0.00116849317765482,0.00100997331326406,0.313828605605278
0.00322468343712747,0.00546535583724308,0.0222919530022148,0.0335501208336163,0.00754803935171331,0.00126016744258386,0.000975599004996329,0.311772722034541
0.00310906786367528,0.00531183181038377,0.0223261525494268,0.0318609453072173,0.00750082633245019,0.00135839093636212,0.000938288859406817,0.308443880812258
0.00298076745273298,0.00514317463381896,0.0222865008495297,0.0301641870718823,0.00741508961798711,0.0014629959879478,0.000898763031448832,0.303989157197654
0.00284229239063231,0.00496185602099273,0.0221796942923788,0.0284766640388074,0.0072951776751355,0.00157370865224737,0.000857719078512726,0.298558356674633
0.0026960953161129,0.00477031988501155,0.0220123457190326,0.0268149883205864,0.00714546090613463,0.00169014562630905,0.00081582206814192,0.292301764801515
0.00254454130287393,0.00457095681577527,0.0217909209775101,0.0251953091595645,0.0069702783009172,0.00181181327878774,0.000773695973360895,0.28536803541448
0.00238988207076305,0.0043660816170849,0.0215216887212386,0.0236330722035544,0.00677388990233537,0.00193810900349273,0.000731916424857827,0.27790224226638
0.00223423452640958,0.00415791355155,0.0212106826535231,0.0221428001794787,0.00656043500894768,0.00206832506035449,0.000691004862245095,0.270044119626661
0.00207956361871357,0.00394855899663989,0.0208636746376059,0.0207378987875168,0.00633389601754922,0.00220165499431161,0.000651424099908013,0.261926514782661
0.00192766939178642,0.00373999635961985,0.0204861566193366,0.0194304904161463,0.00609806777231419,0.0023372026268976,0.000613575295861418,0.253674068234464
0.00178017803381557,0.00353406325694266,0.0200833295151906,0.0182312771333557,0.00585653214728775,0.00247399350625245,0.000577796285342695,0.24540212587166
0.0016385366548202,0.00333244604924916,0.0196600979314949,0.0171494334865286,0.00561263736127173,0.00261098859639678,0.000544361216132401,0.237215875901224
0.00150401147023416,0.00313667178335798,0.019221070433626,0.016192528782294,0.005369481392188,0.00274709990155583,0.000513481401012278,0.229209696991637
0.0013776890045942,0.00294810248706283,0.0187705657006498,0.0153664777177312,0.00512989893417098,0.00288120766707225,0.000485307284149041,0.221466704052654
0.00126047985713833,0.0027679317239866,0.0183126249869481,0.0146755178413318,0.00489645155663742,0.00301217877977863,0.000459931400689855,0.214058482342731
0.00115312452364981,0.00259718336907197,0.0178510308033701,0.0141222123808342,0.00467142093793047,0.00313888599947149,0.00043739218947753,0.207045006078936
0.00105620078149599,0.00243671263764178,0.0173893310116078,0.0137074771059626,0.00445680512118863,0.00326022766326354,0.000417678496002512,0.2004747409933
0.000970132212332925,0.00228720942033077,0.0169308670950812,0.0134306297079922,0.00425431764501137,0.00337514747513308,0.000400734582579834,0.194384928582683
0.000895197527680591,0.0021492039136807,0.0164788052752713,0.013289459749289,0.004065389290811,0.00348265390167539,0.000386465456030507,0.188802042727623
0.000831540436870435,0.00202307441324055,0.0160361691791153,0.0132803170118065,0.00389117221104108,0.00358183860331994,0.000374742334542187,0.183742400600377
0.000779179824776127,0.00190905700369991,0.0156058727665255,0.0133982161157295,0.00373254632463429,0.00367189333173182,0.000365408102277454,0.179212903600874
0.000738019998766926,0.00180725678686934,0.0151907521523282,0.0136369552623153,0.00359012798730623,0.00375212483216149,0.000358282634544346,0.175211880888087
0.000707860773661219,0.00171766025313594,0.0147935948682027,0.013989246643755,0.00346428099088907,0.00382196745027745,0.000353167905848732,0.171730006888137
0.000688407216319187,0.00164014840519374,0.0144171651083077,0.0144468556635894,0.00335512988839085,0.00388099327721434,0.00034985280650369,0.16875126458533
0.000679278950312511,0.00157451023750702,0.0140642236306189,0.0150007460310671,0.00326257549746411,0.00392891969799006,0.000348117592250852,0.166253928569326
0.000680018999393509,0.00152045613841031,0.0137375411581321,0.0156412280649893,0.00318631227451001,0.00396561412328453,0.000347737896394225,0.16421154556366
0.000690102204340437,0.00147763076923919,0.0134399041255621,0.0163581078694775,0.00312584714900641,0.00399109559795764,0.000348488259094137,0.162593894388693
0.000708943267429989,0.0014456250456006,0.0131741113147362,0.0171408350585599,0.00308051938627061,0.00400553301666266,0.000350145167379638,0.161367909784054
0.000735904469923642,0.00142398697989236,0.0129429596830198,0.017978646376212,0.00304952109782929,0.00400923984084637,0.00035248963822481,0.160498552884489
0.000770303103147404,0.00141223127636822,0.0127492180787415,0.0188607024496954,0.00303191811234927,0.00400266543573539,0.000355309402706407,0.159949606687435
0.000811418669085934,0.00140984763793704,0.0125955886062195,0.0197762154293716,0.00302667100403141,0.00398638334443755,0.000358400755003127,0.159684373829132
0.000858499926957936,0.00141630774361609,0.0124846567721978,0.0207145661768314,0.00303265608752964,0.00396107690456222,0.000361570122058727,0.159666260053422
0.00091077186662701,0.0014310708648387,0.0124188327104513,0.0216654104397958,0.00304868612039755,0.00392752255762958,0.000364635402747911,0.159859238107009
0.000967442669550445,0.00145358815629077,0.0124002863353036,0.0226187736068933,0.00307353040900395,0.00388657110871636,0.000367427123034287,0.160228199328723
0.00102771068850003,0.00148330574912719,0.0124308791707084,0.0235651332075364,0.00310593407886021,0.00383912721736968,0.000369789449809793,0.160739209552686
0.00109077145432949,0.00151966683615021,0.0125120953011008,0.0244954880954926,0.00314463641405453,0.00378612755617219,0.000371581096446572,0.161359688890653
0.00115582469383369,0.00156211293879785,0.012644973804384,0.0254014137430325,0.00318838830778979,0.00372851827592555,0.000372676138022971,0.162058531632037
0.0012220813066334,0.0016100845152013,0.0128300450852295,0.0262751040398158,0.00323596891654141,0.0036672325674833,0.000372964737790772,0.162806178056622
0.00128877021581366,0.00166302106826401,0.0130672735232491,0.027109400921038,0.0032862015508319,0.00360316913766126,0.000372353773751807,0.163574648946013
0.00135514499936299,0.00172036094959641,0.0133560086807119,0.0278978135336213,0.0033379687513106,0.00353717231535805,0.00037076734853407,0.164337555502834
0.00142049022606229,0.00178154109107695,0.0136949469838297,0.0286345282120624,0.00339022648444243,0.00347001436435691,0.000368147167242107,0.165070099921731
0.00148412744115405,0.00184599689108605,0.0140821053752617,0.0293144097005636,0.00344201743367002,0.00340238048632058,0.000364452773363813,0.165749083175539
0.00154542074878755,0.0019131624342906,0.0145148080243846,0.0299329937180466,0.00349248338695021,0.00333485694126142,0.000359661636444475,0.166352935769274
0.0016037819055319,0.00198247117999411,0.0149896868373925,0.0304864714064503,0.00354087666826275,0.00326792265033042,0.000353769081189869,0.16686178428404
0.00165867479952741,0.00205335724014264,0.0155026962387285,0.0309716671002857,0.00358657045194123,0.00320194455006665,0.000346788036700125,0.167257562137389
0.00170961919046445,0.00212525735471506,0.0160491424555021,0.0313860116956255,0.00362906773740062,0.00313717683393652,0.000338748578595909,0.167524167872614
0.00175619363527634,0.00219761362344728,0.0166237272531772,0.0317275141802183,0.00366800877854271,0.00307376406030682,0.00032969724455957,0.1676476686664
0.00179803759784369,0.00226987697963624,0.0172206056620691,0.0319947333047406,0.00370317678854029,0.0030117479498376,0.000319696122139567,0.167616540043332
0.00183485280130085,0.00234151134008916,0.0178334566303478,0.0321867502164111,0.0037345016962608,0.00295107756296823,0.000308821728050593,0.16742192509374
0.00186640389410731,0.00241199833693957,0.0184555647655939,0.0323031420044309,0.0037620616260556,0.00289162245344063,0.000297163711896526,0.167057890646002
0.0018925184588525,0.00248084249174019,0.0190799106294281,0.0323439559585325,0.00378608173269815,0.00283318833514132,0.000284823418615958,0.166521656831759
0.00191308634497826,0.0025475766144215,0.0196992667218599,0.0323096847358363,0.00380693011579224,0.00277553475914387,0.000271912335165571,0.165813780485048
0.00192805830725325,0.00261176715281879,0.0203062964519536,0.0322012432225692,0.00382511071549858,0.00271839424580049,0.000258550438822879,0.164938279869243
0.00193744398066795,0.00267301923112615,0.0208936539788773,0.0320199483222434,0.00384125325975654,0.00266149222553408,0.000244864463817913,0.163902695205197
0.00194130928842909,0.0027309811773473,0.0214540835798908,0.0317675028849104,0.00385610039617479,0.00260456702902116,0.000230986107814747,0.162718082968635
0.00193977342588818,0.00278534839040036,0.0219805177679008,0.0314459842769738,0.00387049208234474,0.00254738910628769,0.000217050206091848,0.161398939945046
0.00193300555801044,0.00283586638000663,0.0224661733556036,0.0310578368254333,0.00388534727205537,0.00248977869292678,0.000203192906177499,0.15996304861805
0.0019212213111194,0.00288233274633057,0.0229046440782875,0.0306058663125991,0.00390164305989998,0.00243162127317457,0.000189549877284544,0.15843123504537
0.00190467908486127,0.00292459785715067,0.0232899879234846,0.030093234425239,0.00392039170441653,0.00237288037421669,0.00017625458591283,0.156827035859294
0.00188367620451029,0.00296256407724714,0.023616807472537,0.0295234515093542,0.00394261622551911,0.0023136074005749,0.000163436661563149,0.155176279856578
0.00185854496726372,0.00299618356197003,0.0238803222167312,0.028900366809306,0.00396932544669485,0.00225394831128318,0.000151220368259196,0.153506598230266
0.0018296486721156,0.0030254547643195,0.0240764326355855,0.0282281561824303,0.00400148935719945,0.00219414693449615,0.000139723192825829,0.151846882679485
0.0017973777224258,0.00305041784837022,0.0242017764894735,0.0275113076813191,0.0040400155571196,0.00213454470255079,0.000129054559630923,0.150226710450035
0.00176214584182934,0.00307114914559389,0.0242537780133619,0.0267546050657134,0.00408572745914366,0.00207557668580757,0.000119314681373789,0.14867575067305
0.0017243863957529,0.0030877547434184,0.0242306903229416,0.0259631083914987,0.0041393449012235,0.00201776399718234,0.000110593554572323,0.147223161890899
0.00168454881206014,0.00310036334926247,0.0241316304525398,0.0251421302280045,0.00420146782554251,0.0019617028588082,0.000102970106138762,0.145896990004974
0.00164309513155192,0.00310911870287203,0.0239566056134157,0.0242972064292472,0.00427256365679479,0.00190805079345352,9.65114945293461e-05,0.144723578587217
0.00160049674588891,0.00311417193634019,0.0237065290198546,0.0234340615208007,0.00435295895283561,0.00185751047537247,9.12725663490177e-05,0.143727007556841
0.00155723136094534,0.00311567432780865,0.023383224004693,0.0225585700452262,0.004442835811064,0.00181081175195324,8.72954671371045e-05,0.142928579595597
0.00151378017582876,0.00311377083430173,0.0229894158912593,0.0216767159781194,0.00454223340672132,0.00176869230915275,8.46094024509483e-05,0.142346374682209
0.00147062524955968,0.00310859469479189,0.0225287118677998,0.0207945521958721,0.00465105491742724,0.00173187746761984,8.32305418370054e-05,0.141994890722824
0.00142824705192896,0.00310026335413926,0.0220055695576082,0.0199181612635553,0.00476907994100346,0.00170105964999029,8.31620556648571e-05,0.141884782651626
0.00138712223161152,0.00308887596025885,0.0214252547971132,0.0190536182972938,0.00489598232457228,0.00167687811288167,8.43942747609913e-05,0.142022705884822
0.0013477216493983,0.0030745126704179,0.0207937884340928,0.0182069565262734,0.00503135308634766,0.00165989955912475,8.69049644319467e-05,0.1424112650072
0.00131050869877245,0.00305723592366696,0.0201178814704926,0.0173841361056074,0.00517472784855958,0.00165060022282087,9.06597059855285e-05,0.143049065155332
0.00127593788570034,0.00303709370708692,0.0194048581252185,0.0165910164728147,0.00532561794401483,0.00164934995508129,9.56123791217828e-05,0.143930860877921
0.00124445360761144,0.00301412472837429,0.0186625672306238,0.015833332104634,0.00548354413029895,0.00165639875301905,0.000101705737771474,0.145047794777494
0.00121648907565402,0.0029883653347626,0.0178992833626591,0.0151166710906584,0.00564807166666116,0.00167186609219088,0.000108872071272619,0.146387716019737
0.00119246534830413,0.00295985795852252,0.0171235997756142,0.0144464556721325,0.00581884541088884,0.00169573334597767,0.000117033943113665,0.147935567212695
0.0011727904613181,0.0029286607802666,0.0163443152412176,0.0138279238306807,0.00599562359873404,0.00172783949541938,0.000126105000259519,0.149673827344404
0.00115785862599416,0.0028948581812986,0.0155703163964352,0.0132661109852018,0.00617830906467225,0.00176788024397146,0.000135990845313717,0.151582997760437
0.00114804943201331,0.00285857147203927,0.0148104568409375,0.0127658306112509,0.00636697679158532,0.00181541055847958,0.000146589961455443,0.153642116003728
0.0011437269728253,0.0028199693846385,0.0140734343921103,0.0123316521883617,0.00656189674171079,0.00186985057105927,0.00015779468061476,0.155829277619991
0.00114523882587127,0.00277927788167258,0.0133676684177899,0.011967874801259,0.00676355083436937,0.00193049469728937,0.000169492191283965,0.158122141217248
0.00115291484299246,0.00273678889612307,0.0127011796790683,0.0116784952187333,0.00697264276545124,0.00199652374479622,0.000181565590828369,0.16049839155223
0.00116706570659203,0.00269286761459367,0.0120814753535373,0.0114671701323441,0.00719009935424564,0.00206701969484788,0.000193894992801637,0.162936140285648
0.0011879811803464,0.00264795785431663,0.0115154417414624,0.0113371731079093,0.00741706238818046,0.00214098275088184,0.000206358698836541,0.165414252375151
0.00121592796924401,0.00260258507910089,0.0110092466557561,0.0112913473916376,0.00765487044949522,0.00221735018974528,0.000218834439171107,0.167912594685177
0.0012511471298599,0.00255735671496785,0.0105682529501746,0.0113320558447636,0.00790503077523452,0.00229501653509019,0.000231200680168228,0.170412208698888
0.00129385102195777,0.00251295961371281,0.0101969442758335,0.0114611290184227,0.00816918159822287,0.00237285458691612,0.000243337990598455,0.172895408687807
0.00134421983365938,0.00247015468065263,0.00989886397974755,0.0116798121348835,0.0084490454844608,0.00244973685843355,0.000255130449792361,0.17534580279166
0.0014023977158957,0.00242976875194133,0.00967656800741721,0.0119887118559376,0.00874637409907158,0.00252455695336395,0.000266467072854041,0.177748234242629
0.00146848853246099,0.00239268377857116,0.00953159266782155,0.0123877441591036,0.00906288501247458,0.0025962503511247,0.00027724322126134,0.1800886462447
0.00154255121889346,0.00235982336775506,0.00946443805822655,0.0128760852055555,0.00940019170494251,0.00266381401652716,0.000287361958541546,0.182353883987455
0.0016245947770168,0.00233213683433579,0.00947456771909333,0.0134521275618769,0.00975972862330644,0.00272632428730893,0.000296735303315478,0.184531456500786
0.00171457299795279,0.00231058108918275,0.00956042469634949,0.0141134443684853,0.0101426736897831,0.00278295261366022,0.000305285333155827,0.186609285618866
0.00181237907431609,0.00229610085205576,0.00971946379406607,0.0148567639373874,0.0105498708247802,0.00283297886843894,0.00031294510343975,0.188575467256392
0.00191784030112584,0.00228960774564928,0.00994819947944089,0.0156779568079499,0.0109817548552433,0.0028758020328035,0.000319659359827848,0.190418063423251
0.00203071305182133,0.00229195880040632,0.0102422685448913,0.0165720366443563,0.0114382810069512,0.00291094804707544,0.000325385032365396,0.192124936922828
0.00215067816223355,0.00230393487400768,0.0105965062197205,0.0175331757512864,0.0119188612530103,0.00293807458886601,0.000330091497662213,0.193683636780223
0.0022773368192655,0.0023262195296771,0.0110050341141571,0.0185547354855832,0.0124223099944629,0.00295697262417265,0.000333760590278207,0.195081340168771
0.00241020707088872,0.00235937898391403,0.0114613582115865,0.0196293114099944,0.0129468016752708,0.00296756476635754,0.000336386349421084,0.196304854892874
0.00254872113837854,0.00240384376392607,0.0119584749390721,0.0207487926524315,0.0134898428313904,0.00296990067813887,0.000337974504736935,0.19734068503254
0.00269222378420471,0.00245989267367044,0.0124889830090748,0.0219044346351976,0.0140482606879064,0.0029641498598643,0.000338541727656562,0.198175161213546
0.00283997202460221,0.00252763956413905,0.0130451984242708,0.0230869441711006,0.0146182097975213,0.00295059214953979,0.00033811469255475,0.198794635940152
0.00299113643958855,0.0026070232741724,0.0136192700909402,0.0242865758709383,0.0151951974852459,0.00292960622446917,0.000336728996996064,0.199185742531661
0.00314480424450359,0.00269780097214231,0.0142032939114845,0.0254932387248716,0.0157741281326232,0.00290165645579474,0.000334427983547806,0.199335711739438
0.00329998421987868,0.00279954499359393,0.0147894237803852,0.0266966113479511,0.0163493656418279,0.00286727859947903,0.000331261500012183,0.199232732633677
0.00345561358194957,0.00291164313626225,0.0153699782529507,0.0278862635805,0.0169148128137261,0.00282706492036733,0.000327284638681912,0.198866337701468
0.0036105668865688,0.00303330224083137,0.0159375415472412,0.0290517813421667,0.0174640059169706,0.00278164936868341,0.000322556503646144,0.198227790825835
0.00376366705689374,0.00316355478470031,0.0164850571873291,0.0301828915057878,0.017990222448683,0.00273169335052424,0.000317139060212679,0.197310461050425
0.00391369858542663,0.0033012681803372,0.0170059125749735,0.031269584189532,0.0184865999477787,0.00267787252338736,0.000311096116982167,0.196110171958557
0.00405942287504747,0.0034451564954468,0.0174940132831835,0.032302230871426,0.0189462635836136,0.00262086496313151,0.000304492478648903,0.194625522279612
0.00419959555078104,0.00359379436082169,0.0179438466544162,0.0332716974671614,0.0193624599032905,0.00256134097606094,0.000297393290029604,0.192858174357422
0.00433298539641504,0.0037456328442858,0.0183505349722023,0.0341694513770962,0.0197286934768583,0.00249995473891915,0.000289863574342182,0.190813102355631
0.00445839437837173,0.00389901699973351,0.0187098786908493,0.0349876606609948,0.0200388625394048,0.00243733783273813,0.000281967955001917,0.188498786387736
0.00457467808350298,0.00405220469369062,0.0190183898381886,0.0357192830719446,0.0202873895720509,0.00237409460928105,0.000273770540028106,0.185927338136109
0.00468076586960151,0.00420338628257827,0.0192733152005592,0.0363581433009795,0.0204693431931765,0.00231079921814504,0.000265334937944364,0.183114548303793
0.00477568010959044,0.00435070479935478,0.0194726488299846,0.0368989980429737,0.0205805485139095,0.002247994051142,0.000256724363262087,0.180079853385843
0.00485855405416993,0.0044922764589274,0.019615133827083,0.0373375896131529,0.0206176838438118,0.00218618933393572,0.000248001785238334,0.176846225178741
0.00492864795088072,0.004626211426377,0.0197002539731317,0.0376706890786211,0.0205783618630592,0.00212586359574852,0.000239230079913147,0.173439987991047
0.0049853630444841,0.00475063482632768,0.0197282162668979,0.0378961290048669,0.0204611930019589,0.00206746473980129,0.000230472158453863,0.169890564603608
0.00502825297184731,0.00486370787493603,0.0196999254438892,0.0380128248836775,0.0202658284998994,0.00201141138839826,0.000221791056826453,0.166230146942628
0.00505703204718309,0.00496364889787366,0.0196169510384747,0.0380207842137969,0.0199929811924461,0.00195809411831972,0.000213249975901789,0.162493287229411
0.00507158011449646,0.00504875400517721,0.0194814869795364,0.0379211030413634,0.0196444233897113,0.00190787621500014,0.000204912256848836,0.158716410707283
0.0050719439447098,0.00511741733478633,0.0192963036589338,0.0377159508764278,0.0192229626619343,0.0018610936803574,0.000196841273108116,0.154937258601189
0.00505833542978409,0.00516815096114666,0.0190646928790442,0.0374085455472982,0.0187323972781163,0.00181805438336656,0.000189100224598826,0.151194275585604
0.00503112694476113,0.00519960468185733,0.0187904067211862,0.0370031191874423,0.0181774530876226,0.00177903637382358,0.0001817518302706,0.147525956492131
0.00499084416975779,0.00521058585938998,0.0184775917663767,0.0365048752993899,0.0175637032272401,0.00174428542913173,0.000174857926388422,0.143970163037424
0.00493815651757719,0.00520007932802125,0.0181307199354876,0.035919935790557,0.0168974720508791,0.00171401188431193,0.000168478984854553,0.140563418822314
0.00487386527059298,0.005167267227125,0.0177545166499488,0.0352552768413932,0.0161857252968202,0.00168838680183964,0.000162673565512455,0.137340193326944
0.00479888961181343,0.00511154858151687,0.0173538867057989,0.0345186532950754,0.0154359493390982,0.0016675376174862,0.000157497712334688,0.13433219130778
0.00471425087290402,0.00503255848279007,0.0169338385337452,0.0337185123881275,0.014656022995101,0.001651543512277,0.00015300430328812,0.131567669304131
0.00462105545004592,0.00493018676905731,0.0164994081396015,0.0328638984220591,0.013854085506854,0.00164043085111435,0.000149242368893503,0.129070802688131
0.00452047690424629,0.00480459610621415,0.0160555845456845,0.0319643498518352,0.0130384039319755,0.00163416905481064,0.000146256400832834,0.126861123846908
0.00441373772718392,0.00465623931205659,0.0156072386079507,0.0310297892807796,0.0122172425646337,0.0016326672340929,0.00014408567487637,0.124953047865841
0.00430209110780035,0.00448587561867371,0.0151590566377708,0.0300704060490641,0.0113987365590136,0.00163577186179871,0.000142763610002563,0.123355500254077
0.00418680285400304,0.00429458535705788,0.0147154797989217,0.0290965313419592,0.0105907717260649,0.00164326573029241,0.000142317181101083,0.122071661467973
0.00406913352873892,0.00408378236608695,0.0142806501584095,0.0281185068505928,0.00980087239427521,0.00165486842064297,0.00014276640078061,0.121098842995138
0.00395032088564154,0.00385522337154701,0.013858364421299,0.0271465493706701,0.00903609915314729,0.00167023847120044,0.000144123886600548,0.120428507940841
0.00383156279341278,0.0036110136597458,0.013452036519704,0.0261906146658498,0.00830295816304147,0.00168897736500727,0.000146394531017438,0.120046444966591
0.00371400095039012,0.00335360852977754,0.0130646701993343,0.0252602639639869,0.00760732347825073,0.00171063537242153,0.000149575290613898,0.119933098592791
0.00359870573908383,0.00308581015689804,0.0126988425179974,0.0243645356921572,0.00695437347727676,0.0017347192036842,0.000153655108202289,0.120064052314831
0.00348666250884985,0.00281075954414183,0.0123566987637741,0.0235118243866092,0.00634854205565382,0.00176070134212434,0.000158614976562609,0.120410654705369
0.00337875944269683,0.00253192317870315,0.0120399587409144,0.0227097687538405,0.00579348481260142,0.00178803084724402,0.000164428146548332,0.120940773300926
0.00327577707767412,0.00225307398953208,0.01174993374238,0.0219651513749726,0.00529206013463375,0.00181614536011994,0.000171060475445613,0.121619656545388
0.00317837955452399,0.00197826632722304,0.0114875530493709,0.0212838130573694,0.00484632483195117,0.00184448401803301,0.000178470903721526,0.122410879593371
0.00308710772673637,0.00171180490977125,0.0112533986223145,0.0206705849894246,0.00445754376115323,0.00187250097607198,0.000186612039705857,0.123277344528156
0.00300237429429189,0.00145820790011172,0.0110477467301563,0.020129241511687,0.00412621262421871,0.00189967921537275,0.000195430823788031,0.124182300604851
0.00292446108907905,0.00122216442218341,0.0108706154555317,0.0196624755469558,0.00385209285763364,0.00192554426826538,0.000204869238800524,0.125090348161793
0.00285351853407923,0.00100848685323172,0.0107218171556378,0.0192718977090373,0.00363425724466946,0.00194967742054721,0.000214865033263986,0.125968391995188
0.00278956721339255,0.000822058220044303,0.010601014959311,0.0189580590042955,0.00347114463782406,0.00197172791114574,0.0002253524296569,0.12678651541249
0.00273250147428207,0.000667775079642341,0.0105077822289561,0.0187204959341239,0.00336062201635766,0.0019914236713993,0.000236262799369048,0.127518752769105
0.00268209499342948,0.000550486393245976,0.0104416636396036,0.0185577957039709,0.00330005206374414,0.00200858022194101,0.000247525295782859,0.128143743213613
0.00263800821043676,0.000474929056176841,0.0104022361354014,0.0184676782274342,0.00328636452305536,0.0020231074441619,0.000259067442090173,0.128645249092566
0.00259979745064309,0.000445660875935951,0.0103891675507835,0.0184470909020547,0.00331612971785115,0.00203501401976432,0.000270815667786819,0.129012520114823
0.00256692550623786,0.000466991868256351,0.0104022703306297,0.0184923118993164,0.00338563272361793,0.002044409343175,0.000282695781363312,0.129240484897236
0.00253877347063431,0.000542914766674831,0.0104415477852725,0.0185990579918755,0.00349094666940693,0.00205150268075914,0.000294633365638947,0.129329758418875
0.00251465368121085,0.000677035637265498,0.0105072307240846,0.0187625936341129,0.00362800360043294,0.00205659937861893,0.000306554089685459,0.129286465367237
0.00249382364437383,0.00087250548535316,0.0105998030137575,0.0189778388702698,0.00379266140872449,0.0020600940537713,0.000318383944571212,0.129121891343142
0.00247550076386109,0.00113195375353476,0.0107200153887188,0.0192394743090056,0.00398076560568113,0.00206246089580801,0.000330049424663334,0.128851982310305
0.00245887763715371,0.00145742463733506,0.0108688874450813,0.0195420415226508,0.00418820510472062,0.00206424137736254,0.000341477687083197,0.128496714910378
0.00244313770253955,0.00185031716336052,0.011047697960941,0.0198800367622469,0.0044109615882141,0.00206602975086078,0.000352596724861109,0.128079357618935
0.00242747109729623,0.00231132996536854,0.0112579634901168,0.0202479953781855,0.00464515231985335,0.00206845669475808,0.000363335582307857,0.127625640715644
0.00241109066929236,0.00284041168377546,0.0115014049234776,0.0206405643533271,0.00488706634087219,0.00207217146359348,0.000373624627599067,0.127162854865691
0.00239324811732349,0.00343671795408541,0.0117799017741179,0.0210525609266174,0.00513319392986274,0.00207782296275763,0.000383395885625681,0.126718902483351
0.00237325019299221,0.00409857604909983,0.0120954343611195,0.0214790162450639,0.00538024923315446,0.00208604028055559,0.000392583427439293,0.126321330657614
0.00235047481257675,0.00482345836936591,0.0124500147273051,0.0219152041500008,0.00562518618021365,0.00209741330570435,0.000401123809708246,0.125996377479041
0.00232438687611854,0.00560796608728467,0.0128456078877971,0.0223566563519449,0.00586520811729187,0.00211247409022242,0.000408956556644856,0.125768064176264
0.00229455359838852,0.00644782428829244,0.0132840456984786,0.0227991660585841,0.00609777191531939,0.00213167957291015,0.000416024676974956,0.125657363385133
0.00226065919771324,0.00733788987342903,0.0137669360580188,0.0232387822500439,0.00632058753787016,0.00215539619843065,0.000422275209456773,0.12568146945489
0.0022225188308664,0.00827217327991275,0.0142955701462814,0.0236717962814932,0.00653161412106098,0.00218388690149445,0.000427659791597096,0.125853190527122
0.00218009167889856,0.00924387478895508,0.0148708300488431,0.0240947221028173,0.00672905349143496,0.00221730087093954,0.000432135245408827,0.126180475288734
0.00213349306260677,0.0102454358887558,0.0154930988876838,0.0245042717262304,0.00691134180127396,0.00225566643543481,0.000435664167346041,0.126666081161499
0.00208300539256324,0.0112686058596164,0.016162175769982,0.0248973284622785,0.0070771397515201,0.00229888731061935,0.000438215495434415,0.127307385929257
0.00202908766300148,0.0123045234366568,0.0168771983644202,0.0252709213813157,0.00722532178279012,0.00234674233628778,0.000439765014178724,0.128096341484061
0.00197238313433032,0.0133438130786457,0.0176365764341361,0.0256222049923457,0.00735496462848601,0.00239888872524813,0.000440295758919866,0.129019566326727
0.00191372484304536,0.014376695033465,0.0184379399037585,0.0259484480224223,0.00746533569894783,0.00245486873224738,0.0004397982966961,0.130058572384002
0.00185413862240206,0.0153931080521827,0.0192781048101681,0.0262470344388088,0.00755588185387703,0.00251411953684564,0.000438270882570035,0.131190121187586
0.00179484338850862,0.0163828432772045,0.0201530598103549,0.0265154786850057,0.00762621916845933,0.00257598604647926,0.000435719508097107,0.13238670395182
0.00173724851347911,0.0173356875206798,0.0210579750838075,0.0267514557684688,0.0076761242537609,0.00263973627696687,0.000432157862720444,0.133617138889441
0.00168294813872084,0.0182415738337458,0.0219872346157722,0.0269528455323043,0.00770552751252035,0.00270457894579535,0.000427607218612407,0.134847276456956
0.00163371225812574,0.0190907368684826,0.0229344918835014,0.0271177891843929,0.00771450839628749,0.00276968289757114,0.000422096238403119,0.136040798549417
0.00159147434812396,0.0198738699374549,0.0238927479454774,0.02724475484032,0.00770329237750389,0.00283419794827835,0.000415660705275256,0.137160091357666
0.00155831530801676,0.0205822799240191,0.0248544499577129,0.027332607571486,0.00767224909681677,0.00289727666542985,0.000408343184041897,0.138167165705588
0.00153644353563196,0.0212080356728339,0.0258116071119,0.0273806787125466,0.0076218910376549,0.00295809648909896,0.000400192633063656,0.139024595191742
0.00152817108607576,0.0217441055368756,0.0267559200269558,0.0273888293176881,0.00755287210123254,0.00301588148191019,0.000391263994418158,0.139696442089525
0.0015358860098323,0.0221844803825088,0.0276789191831524,0.0273575036192173,0.00746598557374319,0.00306992293714541,0.000381617789900612,0.140149143740825
0.00156202109683214,0.0225242792909575,0.0285721082465192,0.0272877697779472,0.00736216114738103,0.00311959810353201,0.000371319741354187,0.140352337419605
0.0016090193231997,0.0227598359709503,0.0294271088269937,0.0271813465493637,0.00724246080983884,0.00316438639732024,0.000360440417611535,0.140279607556115
0.00167929629596368,0.0228887640224461,0.0302358038278167,0.0270406150948431,0.00710807346106727,0.00320388263228018,0.000349054895595964,0.139909142968423
0.00177519998111101,0.0229099987794017,0.0309904765180011,0.0268686148217102,0.00696030797813664,0.00323780694277387,0.000337242417065456,0.139224291014544
0.0018989680594566,0.0228238135042879,0.0316839417012479,0.0266690217207209,0.00680058423053436,0.00326601112905159,0.000325086025091441,0.138213992709805
0.00205268338823441,0.0226318087864751,0.032309664736528,0.0264461083107699,0.00663042151494041,0.00328848111120159,0.000312672172135138,0.136873084052687
0.00223822821556586,0.0223368757147787,0.0328618645489639,0.026204685992966,0.00645142413293042,0.00330533517818948,0.00030009029986703,0.135202455934797
0.00245723795366817,0.0219431349854834,0.0333355980944187,0.0259500326107181,0.00626526426498246,0.00331681788132053,0.000287432394763559,0.133209075111813
0.00271105542232018,0.0214558548875787,0.0337268254317347,0.0256878094767196,0.00607366271078745,0.00332328971289706,0.000274792519347841,0.130905877735023
0.00300068649510769,0.0208813508875771,0.0340324558967921,0.0254239725133048,0.0058783682933115,0.00332521301576074,0.000262266308314686,0.128311551611429
0.00332675802314273,0.0202268690148279,0.0342503762244947,0.0251646814853889,0.00568113668198568,0.00332313476551906,0.000249950410642228,0.125450222386227
0.00368947884673938,0.0195004552586614,0.0343794607264912,0.0249162102546838,0.00548370919874934,0.00331766689225261,0.000237941859491223,0.122351054710406
0.00408860470073886,0.0187108137396493,0.0344195627914621,0.0246848600911883,0.00528779204587323,0.00330946474823745,0.000226337360022828,0.119047777043138
0.00452340787154831,0.017867157105358,0.034371487117703,0.0244768772724624,0.00509503637792381,0.00329920433593854,0.00021523249708116,0.11557813979744
0.00499265253955911,0.0169790530738993,0.0342369432379783,0.0242983753390727,0.00490701965037783,0.00328755900757746,0.000204720875261425,0.111983319755196
0.00549457680159483,0.0160562711043215,0.0340184824809854,0.0241552615345355,0.00472522865526942,0.00327517646227927,0.000194893208758712,0.108307287218705
0.006026882380323,0.0151086327610057,0.0337194218494327,0.0240531663615858,0.004551044591969,0.00326265693304758,0.000185836375530938,0.104596154662518
0.00658673296290106,0.0141458685793049,0.0333437587734046,0.0239973750332582,0.00438573044355911,0.00325053344013355,0.000177632444529752,0.100897525656177
0.00717076194830018,0.0131774834480946,0.0328960800571011,0.0239927599353881,0.00423042086324057,0.0032392548891252,0.000170357683852013,0.0972598601643015
0.00777509012166498,0.0122126319658027,0.0323814671759117,0.0240437138798982,0.00408611472559779,0.003229172632962,0.000164081562502459,0.0937318676309471
0.0083953534696018,0.0112600049221967,0.0318053994585323,0.02415408453944,0.00395367043792727,0.00322053092751115,0.000158865765079446,0.090361934388237
0.00902674107984376,0.0103277279311806,0.0311736568654619,0.0243271105401915,0.00383380399417334,0.00321346151426219,0.000154763243552059,0.087197588279455
0.00966404286151287,0.00942327319780644,0.0304922246561239,0.0245653591673793,0.00372708958873159,0.0032079823723354,0.000151817331866199,0.0842850008377208
0.0103017066711907,0.00855338534813348,0.0297672027652048,0.0248706653310565,0.00363396248000183,0.00320400050634865,0.000150060947709951,0.0816685254076938
0.0109339043143795,0.00772402209398901,0.0290047228528421,0.0252440720975137,0.00355472377559632,0.00320131849327982,0.000149515902426877,0.0793902680245595
0.0115546057835935,0.00694031019279082,0.0282108755782176,0.0256857744879335,0.00348954688363973,0.00319964441550224,0.000150192335365524,0.0774896868420559
0.0121576609625928,0.00620651673848511,0.0273916496409068,0.0261950696344396,0.00343848548303815,0.00319860476363404,0.000152088282753011,0.0760032158042585
0.0127368878372815,0.00552603543838126,0.0265528827584646,0.0267703170084029,0.00340148295672685,0.00319775989110349,0.000155189384419489,0.0749639092514646
0.0132861659612893,0.00490138728128582,0.0257002235606465,0.0274089120511474,0.00337838326622422,0.00319662161566646,0.000159468727339912,0.0744011057645126
0.01379953347539,0.00433423484204774,0.0248391028049489,0.0281072758524705,0.00336894320225692,0.00319467255362152,0.000164886824719399,0.0743401105310226
0.0142712854200474,0.00382540932938138,0.0239747123709358,0.0288608632645886,0.00337284582520442,0.00319138670407646,0.000171391732431474,0.0748018946359832
0.014696070648571,0.00337494932987836,0.0231119909540681,0.0296641917845941,0.00338971474744286,0.00318625067925828,0.000178919308994944,0.0758028081260085
0.015068984560657,0.00298215003048854,0.0222556159100347,0.0305108931030825,0.0034191287742134,0.00317878487979802,0.000187393628695317,0.0773543046702039
0.0153856551632759,0.00264562154068065,0.0214100009180148,0.0313937881980863,0.00346063635473162,0.00316856390449481,0.000196727558149851,0.0794626800230987
0.0156423205060263,0.00236335481769387,0.0205792987613281,0.0323049857444526,0.00351376931518228,0.00315523555773464,0.00020682350359807,0.0821288325301204
0.0158358960814075,0.00213279364269916,0.0197674077141848,0.0332360028303637,0.00357805544709104,0.00313853793829067,0.000217574329368931,0.0853480591204985
0.0159640310050073,0.0019509110913618,0.0189779794380161,0.0341779062612865,0.00365302967974621,0.00311831421310568,0.000228864439138738,0.0891099025226594
0.0160251515428332,0.00181428894841927,0.018214426350654,0.0351214716518803,0.00373824371415833,0.00309452474563374,0.000240571004549782,0.0933980642311169
0.0160184902594113,0.00171919848726393,0.0174799270207905,0.0360573562147102,0.00383327406198421,0.00306725622036893,0.000252565323140102,0.0981903950060213
0.0159440993343036,0.00166168099491035,0.0167774289446551,0.0369762803993621,0.00393772837836361,0.00303672732562689,0.000264714289550669,0.103458972617109
0.0158028474740237,0.00163762646906487,0.0161096487261578,0.0378692136165074,0.00405124989474733,0.00300329055678965,0.000276881968690875,0.109170274789885
0.0155964009490115,0.00164284909269162,0.0154790698805746,0.0387275598368776,0.00417351978250695,0.00296742984628288,0.000288931262856822,0.115285452451987
0.0153271901448975,0.00167315836186672,0.0148879381381854,0.0395433392398021,0.00430425742308669,0.00292975396930581,0.000300725662068882,0.121760703803705
0.0149983632747597,0.00172442502538974,0.0143382537332239,0.0403093616675275,0.00444321875557773,0.00289098592144616,0.000312131059037781,0.128547744095215
0.0146137285796081,0.00179264120230393,0.0138317603053423,0.0410193864506572,0.00459019303805638,0.0028519486149034,0.000323017605495602,0.135594360039495
0.0141776860223962,0.00187397412556814,0.0133699307002179,0.0416682623606552,0.00474499843248873,0.00281354724863639,0.000333261588382025,0.142845032505608
0.0136951496095161,0.00196481298277815,0.0129539507602172,0.0422520419432585,0.00490747677199739,0.00277674866930423,0.000342747306673138,0.150241608450766
0.0131714619535373,0.00206180842277831,0.0125847027426024,0.0427680661145451,0.00507748770179366,0.00274255809393157,0.000351368925262216,0.157724004010411
0.0126123032307872,0.00216190450220496,0.012262750033467,0.0432150169010787,0.00525490216921888,0.00271199371862901,0.000359032272454183,0.165230924399867
0.0120235970333598,0.00226236310119009,0.0119883244257155,0.0435929376119502,0.00543959506713462,0.00268605991417243,0.00036565654210211,0.172700590160153
0.0114114156069106,0.00236078107296445,0.0117613168057503,0.0439032197462578,0.00563143675811368,0.00266571983351327,0.000371175862611968,0.180071459875089
0.0107818865887267,0.00245510055198557,0.0115812718431271,0.0441485549899465,0.0058302832431226,0.00265186828216739,0.00037554069518658,0.187282935806178
0.0101411028445539,0.00254361289666483,0.0114473870841447,0.0443328505922476,0.00603596488485137,0.00264530563036642,0.000378719016406371,0.194276035832296
0.00949503665554087,0.00262495669810684,0.0113585166195272,0.0444611081700875,0.00624827381035907,0.00264671343652946,0.000380697233194073,0.200994017656532
0.00884945938752752,0.00269811022880587,0.0113131792620167,0.0445392688531872,0.006466950311981,0.00265663236704695,0.000381480783952414,0.207382948844078
0.00820986777443541,0.0027623787161173,0.0113095710344989,0.0445740303049034,0.0066916686260043,0.00267544294076875,0.00038109439644454,0.213392225287521
0.00758141794179107,0.00281737691273015,0.0113455817984282,0.0445726422665496,0.00692202234621175,0.00270334957935407,0.000379581988142347,0.218975047147505
0.00696886818720093,0.00286300756586996,0.0114188159965989,0.0445426866405427,0.0071575095816255,0.00274036839616016,0.00037700619700748,0.224088861963839
0.00637653127136333,0.00289943650492123,0.0115266175686896,0.0444918473343161,0.00739751801009657,0.00278631910290158,0.000373447525826212,0.228695778830551
0.00580823660765522,0.00292706511324352,0.0116660989318435,0.0444276755536913,0.0076413102249542,0.00284082135173912,0.00036900309008981,0.232762949610454
0.00526730242214005,0.00294650089876728,0.0118341736037126,0.0443573575770455,0.00788801009644638,0.00290329575506993,0.000363784981939295,0.236262908715142
0.00475651776307683,0.00295852679646381,0.0120275919854267,0.044287493226993,0.00813659112369852,0.00297296973005823,0.000357918289459103,0.239173863041728
0.00427813412025306,0.00296406980561357,0.0122429801547554,0.0442238935372201,0.00838586781305001,0.00304888819697983,0.000351538828035335,0.24147992669737
0.00383386629226767,0.00296416956835364,0.0124768820289683,0.0441714052397676,0.00863449093553739,0.0031299290215826,0.000344790641354904,0.243171299344099
0.00342490196246465,0.00295994746655661,0.0127258056359978,0.0441337678460858,0.00888094719150568,0.00321482293628207,0.000337823322112929,0.244244390504178
0.00305191923613874,0.002952576720728,0.0129862742437998,0.0441135067349071,0.00912356353551434,0.00330217750618295,0.000330789202474966,0.244701892924481
0.00271511124485898,0.00294325387040909,0.0132548827138357,0.0441118633986916,0.00936051625542318,0.00339050453229505,0.000323840474246825,0.244552804035997
0.00241421687346265,0.00293317195692868,0.0135283589099214,0.0441287622544,0.00958984481442843,0.00347825013184387,0.000317126310706603,0.243812385829488
0.00214855666880776,0.00292349569342764,0.0138036294811032,0.0441628123957234,0.00980947041328581,0.0035638266360128,0.00031079006825569,0.242502045752618
0.00191707298550565,0.00291533884051385,0.0140778887620837,0.0442113424037451,0.0100172191916474,0.00364564541973853,0.000304966642119548,0.24064912058553
0.00171837337156894,0.00290974389511949,0.014348668907391,0.0442704666512733,0.0102108499460098,0.00372214982645831,0.00029978003833162,0.238286552160634
0.00155077613013628,0.00290766410624937,0.0146139088216596,0.0443351819666458,0.0103880861606459,0.0037918474426223,0.000295341212098074,0.235452455002359
0.00141235699994884,0.00290994780997306,0.0148720189046166,0.0443994934346078,0.0105466519583804,0.00385334105003429,0.000291746214257624,0.232189586508622
0.00130099600111277,0.00291732511506605,0.0151219380932198,0.044456567029905,0.0106843112243981,0.00390535756857632,0.000289074679866446,0.228544734959083
0.00121442365070615,0.00293039702498561,0.0153631795184534,0.0444989050901331,0.0107989087527347,0.00394677421347935,0.000287388682145007,0.224568037094084
0.00115026590561727,0.00294962710284362,0.0155958615723833,0.0445185395068981,0.0108884120667986,0.0039766410794022,0.000286731961796125,0.220312230869289
0.00110608728642646,0.00297533573843331,0.01582072215751,0.0445072374446129,0.0109509526698427,0.0039941995220986,0.000287129531086989,0.215831848762085
0.00107943165766731,0.00300769696630859,0.0160391149246713,0.0444567150559402,0.0109848657936192,0.00399889598539823,0.000288587645662523,0.211182363658978
0.00106786013794825,0.00304673767804341,0.0162529868679808,0.044358855559346,0.0109887280541863,0.00399039119937923,0.000291094131377356,0.206419308717374
0.00106898566573963,0.00309233902799304,0.0164648365853698,0.0442059287329651,0.0109613925978469,0.00396856483594377,0.000294619044431405,0.20159740015227
0.00108050386651789,0.00314423985227578,0.0166776525306528,0.0439908089750046,0.0109020211878585,0.00393351569463286,0.000299115631400912,0.196769694426199
0.00110022002165787,0.00320204198297779,0.0168948313738424,0.0437071882662403,0.0108101123089264,0.00388555740460593,0.000304521547885278,0.19198680754224
0.00112607208850013,0.00326521741357236,0.0171200780106786,0.0433497787131794,0.0106855240810022,0.00382520964239491,0.00031076029425675,0.18729621571579
0.00115614982913797,0.00333311732117773,0.0173572902561533,0.0429144978135639,0.0105284908141392,0.0037531850166996,0.000317742832651795,0.182741648173014
0.00118871015040549,0.00340498293968449,0.0176104322430602,0.0423986292344095,0.0103396323771716,0.00367037199186827,0.00032536935696679,0.178362577180481
0.00122218874665402,0.00347995818630096,0.0178834006979562,0.0418009529104478,0.0101199560517184,0.00357781442439158,0.000333531192870743,0.174193807546544
0.00125520812087337,0.00355710381790862,0.0181798878942926,0.0411218402587548,0.00987085100488115,0.00347668839634239,0.000342112803736892,0.170265167042479
0.00128658208247833,0.00363541281956481,0.018503244932481,0.0403633125709414,0.00959407572777327,0.00336827700441655,0.000350993869274266,0.166601299924777
0.00131531688131299,0.00371382673565713,0.018856349268357,0.0395290623309175,0.00929173865365265,0.00325394365211376,0.000360051391953711,0.163221567229301
0.00134060921842862,0.00379125272001974,0.0192414807601946,0.0386244375429099,0.00896627194713479,0.00313510432579775,0.000369161781428733,0.160140058470844
0.00136184145317817,0.00386658116456601,0.0196602105432272,0.0376563882838923,0.00862039854277399,0.00301319936795482,0.000378202871937343,0.157365718141303
0.0013785743800511,0.00393870382384956,0.0201133065693966,0.0366333742298489,0.00825709294011199,0.00288966534960834,0.000387055839215912,0.154902585729911
0.00139053795735338,0.0040065323458666,0.0206006588412088,0.0355652330328641,0.00787953680030293,0.00276590772474003,0.000395606996951214,0.152750141145972
0.00139762033502334,0.00406901702204308,0.0211212265990806,0.0344630117813828,0.00749107078161655,0.00264327497189443,0.000403749462875534,0.150903741990321
0.00139985549023174,0.00412516541312367,0.0216730090330667,0.033338766375265,0.00709514413176845,0.00252303486834049,0.000411384686071358,0.14935513657543
0.00139740976822885,0.00417406039008802,0.022253040267157,0.0322053355222911,0.00669526334355848,0.00240635342282464,0.000418423817715154,0.148093035895161
0.00139056763233614,0.00421487710961887,0.0228574084094189,0.0310760965630442,0.00629494091755638,0.00229427687615721,0.000424788895242416,0.147103727718272
0.00137971692923271,0.00424689851095277,0.0234812977068439,0.0299647095531157,0.0058976451469091,0.00218771709465084,0.000430413807792574,0.14637171613921
0.0013653339608497,0.00426952903516243,0.0241190524745917,0.0288848550813728,0.00550675180545583,0.00208744061267606,0.000435245021913097,0.145880370285
0.00134796862157486,0.00428230637498848,0.0247642613460674,0.0278499710432793,0.00512549858761405,0.0019940615041174,0.000439242064754729,0.145612566429559
0.00132822981623019,0.00428491110003565,0.0254098602250018,0.0268729938051282,0.00475694307050565,0.00190803816551306,0.000442377777706026,0.145551307931337
0.00130677132850254,0.00427717392488327,0.0260482518087089,0.0259661093599535,0.00440392484923431,0.00182967397895526,0.000444638357143116,0.145680305874111
0.00128427826501018,0.00425908026346805,0.0266714386295448,0.025140519854607,0.00406903236340817,0.00175912170790542,0.000446023189099857,0.145984499042466
0.00126145415425611,0.00423077169715695,0.0272711657197218,0.0244062302093228,0.00375457481027719,0.00169639137360015,0.000446544474565692,0.14645048726656
0.00123900872531393,0.00419254412800698,0.0278390688029193,0.0237718586328217,0.0034625594275065,0.00164136125748309,0.000446226644522211,0.14706685206346
0.00121764633097512,0.00414484262334349,0.0283668244143377,0.0232444739170124,0.00319467430473461,0.0015937915772473,0.000445105576643053,0.147824344704147
0.00119805493846374,0.00408825317062804,0.0288462992606089,0.0228294616687083,0.00295227672425132,0.00155334030907515,0.000443227639860171,0.148715932715814
0.0011808956086742,0.00402349164639676,0.0292696969952521,0.0225304211350393,0.00273638685803621,0.00151958059141537,0.000440648599738312,0.149736707965622
0.00116679242135098,0.00395139023598962,0.0296297009048549,0.0223490938569495,0.00254768652658652,0.0014920191471131,0.000437432411237859,0.150883668640393
0.00115632286146804,0.00387288145860089,0.0299196104742857,0.022285324782129,0.00238652268256841,0.00147011519000594,0.000433649910329333,0.152155390204936
0.00115000873356405,0.00378897999756671,0.0301334688222023,0.0223370555729374,0.00225291529828824,0.00145329931679274,0.000429377406163545,0.153551598112055
0.00114830768746282,0.00370076269384965,0.0302661775027321,0.0225003490263747,0.00214656937830837,0.00144099189495934,0.000424695178440965,0.155072654750516
0.0011516054182725,0.00360934724141713,0.0303135955358204,0.0227694432307992,0.00206689086143578,0.00143262042981868,0.000419685896925386,0.156718978660523
0.001160208590124,0.0035158702424033,0.0302726205277925,0.0231368343042788,0.00201300620358654,0.00142763537333245,0.000414432994589893,0.158490422962337
0.00117433856127446,0.00342146528514924,0.0301412509708831,0.0235933870071405,0.00198378543383436,0.00142552388534664,0.000409019034667078,0.160385648130654
0.0011941260442545,0.00332724160026365,0.0299186298212662,0.0241284728786156,0.00197786843935922,0.0014258211800202,0.000403524108588371,0.162401528446784
0.00121960688816444,0.00323426370810455,0.0296050698180482,0.0247301355772499,0.00199369415969464,0.00142811925160086,0.000398024289582118,0.164532630132243
0.00125071919728503,0.00314353238517403,0.0292020604739581,0.0253852827153521,0.00202953228919637,0.00143207292394194,0.000392590160135676,0.16677079307809
0.00128730199076288,0.00305596725888635,0.0287122557057676,0.0260799027175095,0.00208351703287325,0.00143740325707773,0.000387285438225902,0.169104840107723
0.0013290955652867,0.00297239135997869,0.028139440722728,0.0267993042200059,0.00215368242068923,0.00144389835525604,0.000382165741564945,0.171520429658732
0.00137574366212307,0.00289351798604136,0.0274884774702182,0.0275283743457166,0.00223799862446979,0.00145141161487501,0.000377277541179001,0.174000059122917
0.00142679748275424,0.0028199402305743,0.0267652292984277,0.0282518508560438,0.00233440863245792,0.00145985750168943,0.000372657357122122,0.176523216814268
0.00148172155290139,0.00275212349254336,0.0259764670008441,0.0289546018349613,0.00244086454570746,0.00146920505322082,0.000368331238209723,0.179066671275886
0.00153990140027657,0.00269040119785949,0.0251297593284674,0.0296219055733387,0.00255536267153954,0.00147946942399575,0.000364314551914586,0.181604877513998
0.00160065297939609,0.00263497384343111,0.0242333511005335,0.0302397230196592,0.00267597650676237,0.00149070188977918,0.000360612096696668,0.184110472415362
0.00166323373842159,0.00258591132811957,0.0232960313101639,0.0307949556521809,0.00280088669159993,0.00150297877694991,0.000357218534530797,0.186554828719536
0.00172685517368102,0.00254315838095822,0.0223269931229933,0.0312756827761483,0.00292840712755216,0.00151638977475826,0.000354119123415397,0.188908639372686
0.00179069666085271,0.00250654276178477,0.0213356879286291,0.0316713736702278,0.00305700666832333,0.0015310260386937,0.000351290710320367,0.191142510540748
0.00185392029817379,0.00247578581420536,0.0203316763445927,0.0319730711019097,0.00318532602773814,0.00154696844892029,0.00034870292655616,0.193227548804501
0.00191568645737587,0.0024505149058727,0.0193244797924659,0.0321735428990814,0.00331218968929187,0.00156427637577074,0.000346319514034458,0.195135931901232
0.00197516971547164,0.00243027729749213,0.0183234365749463,0.0322673975988274,0.00343661261395248,0.00158297731385302,0.000344099708992377,0.196841450109543
0.00203157482396792,0.0024145550292252,0.0173375660940566,0.0322511599693245,0.00355780157704941,0.00160305775335899,0.000341999620325272,0.198320000539692
0.00208415233741134,0.0024027804784086,0.0163754440816463,0.0321233033739834,0.00367515116688297,0.00162445563952291,0.000339973556052528,0.199550016652896
0.00213221346029276,0.00239435229413762,0.0154450909115228,0.0318842382501375,0.00378823480771649,0.00164705471814974,0.000337975262668092,0.200512822215377
0.00217514362766073,0.00238865141920556,0.0145538745504912,0.0315362585656905,0.00389679150146909,0.00167068098643992,0.000335959041356395,0.201192909419232
0.00221241436944193,0.00238505685163334,0.0137084294199429,0.0310834500649059,0.00400070919530381,0.00169510138391709,0.000333880702548229,0.201578150817464
0.00224359312324425,0.00238296071739355,0.0129145921824268,0.0305315647217824,0.00410000571153911,0.00172002477186114,0.000331698332203411,0.201659960389938
0.00226835081064234,0.00238178220110758,0.0121773550633678,0.0298878652432581,0.00419480807185166,0.00174510516305085,0.000329372868442309,0.201433418342488
0.00228646711191734,0.00238097994142148,0.0115008367142133,0.0291609430273363,0.00428533094899129,0.00176994709114167,0.000326868512591952,0.200897367577481
0.00229783340730613,0.00238006262119765,0.0108882699903754,0.0283605136008906,0.00437185494031368,0.00179411295568177,0.000324153011360295,0.200054481323285
0.00230245331578896,0.00237859762927486,0.0103420055118972,0.0274971949089686,0.00445470533060945,0.00181713213413387,0.000321197844020028,0.198911295544293
0.00230044076078881,0.00237621779413498,0.00986352940767655,0.0265822751456391,0.0045342319460176,0.00183851159916976,0.000317978342727459,0.197478197302665
0.00229201558304846,0.00237262624877127,0.00945349319349158,0.025627477461485,0.00461079057956862,0.00185774770619692,0.000314473774740673,0.195769360594813
0.00227749686849613,0.00236759945952563,0.00911175355020147,0.0246447285521185,0.00468472631281541,0.00187433874041989,0.000310667416733177,0.193802623820995
0.00225729430014877,0.00236098837706187,0.00883741997932689,0.0236459370672794,0.00475635891243374,0.00188779777365401,0.000306546645706755,0.191599307286596
0.00223189792453489,0.00235271763133917,0.00862890873564806,0.0226427866285903,0.00482597039014575,0.00189766539497053,0.000302103058694131,0.189183973632133
0.00220186671750781,0.00234278273482238,0.00848400175335328,0.021646547287234,0.00489379479348283,0.00190352193512559,0.000297332620593382,0.18658413670957
0.00216781625868751,0.00233124536135839,0.00839990927912342,0.020667908316001,0.00496001031011107,0.00190499887442115,0.000292235826810837,0.183829922793768
0.00213040574311205,0.0023182268958584,0.00837333480279649,0.0197168341677867,0.00502473374415491,0.00190178916746227,0.000286817856727975,0.180953682111649
0.00209032452204122,0.00230390056325339,0.00840054105006452,0.0188024442763743,0.00508801729952957,0.00189365620471255,0.000281088691921142,0.177989543647382
0.00204827837410132,0.00228848251044908,0.00847741631648552,0.0179329162830111,0.00514984745538165,0.00188044108992046,0.000275063179236478,0.174972907082424
0.00200497574785688,0.00227222220956085,0.00859954102476001,0.017115411447203,0.00521014569381432,0.0018620679284234,0.000268761025185222,0.171939872376023
0.00196111426554987,0.00225539248023982,0.00876225480285521,0.0163560205991041,0.00526877096763186,0.00183854692374523,0.000262206706938593,0.168926616913029
0.001917367807223,0.00223827935202746,0.00896072444095285,0.0156597290322156,0.00532552399060412,0.00180997522911254,0.000255429279857427,0.165968738755831
0.00187437447835555,0.00222117196304351,0.00919001281233144,0.0150303990429805,0.00538015358491086,0.00177653563230701,0.000248462063941335,0.163100589073152
0.00183272569912087,0.00220435271967089,0.00944514842139443,0.0144707690528749,0.00543236534525448,0.00173849320939501,0.000241342204366342,0.160354615422477
0.00179295658142445,0.00218808799412101,0.00972119479906476,0.0139824680838972,0.00548183274727786,0.00169619006344667,0.000234110117352926,0.157760732132212
0.00175553772443207,0.00217261968175605,0.0100133185896471,0.0135660439678951,0.00552821057666311,0.00165003824949259,0.000226808843787878,0.155345730099133
0.00172086855740639,0.00215815795486195,0.0103168549263986,0.0132210036426719,0.00557115026611336,0.00160051103667251,0.000219483334284168,0.153132738506445
0.00168927236431681,0.00214487552343132,0.010627368458823,0.0129458643838322,0.00561031645960704,0.00154813275056886,0.000212179683154885,0.151140753639419
0.00166099311097996,0.00213290364751307,0.01094070809794,0.0127382155311881,0.00564540391126633,0.00149346752520743,0.000204944324290241,0.149384252628906
0.00163619414586647,0.00212233004963976,0.0112530534664757,0.012594790833882,0.00567615371895684,0.00143710733735122,0.000197823203489206,0.147872910777438
0.00161495877480174,0.00211319876214946,0.0115609514652445,0.012511551722056,0.00570236793686894,0.00137965967963246,0.000190860946779831,0.146611439392885
0.00159729265537521,0.00210551182197451,0.0118613422075552,0.0124837815515667,0.0057239218066135,0.00132173517671143,0.000184100049137368,0.145599557017587
0.00158312792723594,0.00209923260334488,0.012151574489571,0.0125061903413157,0.00574077311969856,0.0012639354099439,0.000177580110505009,0.144832101327312
0.00157232896560416,0.00209429047508209,0.0124294115531385,0.0125730290283288,0.00575296843854029,0.00120684120915883,0.000171337145119975,0.144299282386448
0.0015646995941372,0.002090586406089,0.0126930279371095,0.0126782118641146,0.00576064592927598,0.0011510016785695,0.000165402985574393,0.143987070549816
0.00155999153045714,0.00208799913462405,0.012940998004809,0.0128154451365824,0.00576403446101875,0.00109692422581672,0.000159804795392762,0.143877704522193
0.00155791379960933,0.00208639156283419,0.013172276813154,0.012978359831939,0.00576344867343487,0.00104506584322353,0.000154564695878542,0.143950298485951
0.00155814284668949,0.0020856171158874,0.0133861744133545,0.013160645179918,0.00575928001922229,0.000995825845181452,0.000149699507782655,0.144181523240846
0.00156033309143427,0.00208552587359475,0.0135823251737931,0.0133561794036407,0.00575198422453049,0.000949540208820654,0.000145220606533504,0.144546335251739
0.00156412767267402,0.00208597029567978,0.0137606540432501,0.0135591536372792,0.00574206598562581,0.000906477612362072,0.0001411338899915,0.145018728847073
0.00156916911126993,0.0020868103197026,0.0139213417116533,0.0137641850596571,0.00573006187599285,0.000866837215522749,0.000137439858237359,0.145572489568214
0.00157510957024576,0.00208791759469058,0.0140647903972202,0.0139664158420149,0.00571652234795368,0.000830748174409627,0.000134133804525009,0.146181929581546
0.00158162033899494,0.00208917868276743,0.014191591590882,0.0141615953017499,0.00570199355482941,0.000798270835507772,0.000131206114844592,0.146822587645098
0.0015884001647609,0.00209049718659104,0.0143024966081709,0.0143461432561562,0.00568699966740006,0.000769399514240819,0.000128642670790096,0.147471874780017
0.00159518211794556,0.00209179487551121,0.0143983902444983,0.0145171926542002,0.00567202638848016,0.000744066727127236,0.000126425346816311,0.148109642413002
0.00160173879085186,0.00209301192704021,0.0144802671797799,0.0146726095414892,0.00565750638888112,0.00072214870778384,0.000124532588212483,0.148718646361353
0.00160788575148048,0.00209410636692107,0.0145492101878025,0.0148109890720911,0.00564380734082396,0.000703472005254594,0.000122940050384209,0.14928488231959
0.00161348325317654,0.00209505276123008,0.0146063689670078,0.0149316276971885,0.00563122310698823,0.00068782095053346,0.000121621275719311,0.14979777698425
0.0016184362087499,0.00209584024965803,0.0146529386303338,0.0150344733159517,0.00561996848356826,0.000674945782424824,0.000120548383915019,0.150250230935494
0.00162269242631758,0.00209647008515684,0.0146901374534797,0.0151200564388943,0.00561017772144891,0.000664571236437097,0.000119692755141556,0.150638520568037
0.00162623915659632,0.0020969529051954,0.0147191841284762,0.0151894058592417,0.00560190686022186,0.000656405407311757,0.000119025690948539,0.15096207219375
0.00162909812208112,0.00209730595964509,0.0147412751922367,0.0152439521505513,0.00559513967867925,0.000650148687019249,0.000118519042691924,0.151223120733964
0.00163131933641237,0.00209755045953571,0.0147575632545879,0.0152854222898892,0.00558979680532106,0.000645502555797976,0.000118145798856898,0.151426264274288
0.00163297412238954,0.00209770914945679,0.0147691362595123,0.015315729192412,0.00558574733884024,0.000642177978863566,0.000117880620236933,0.151577930518995
0.00163414776432179,0.00209780418978148,0.0147769978314968,0.0153368606755026,0.00558282226245667,0.000639903148455764,0.000117700308713635,0.151685780841739
0.00163493219338393,0.00209785544868736,0.0147820490771054,0.0153507729998917,0.00558082896058824,0.000638430309647737,0.000117584194991327,0.15175808754563
0.00163541906221203,0.0020978793118923,0.0147850728300408,0.0153592944086198,0.00557956617132643,0.000637541414184854,0.000117514432744367,0.151803125690188
0.00163569355679027,0.00209788808822137,0.0147867218753324,0.0153640438771953,0.00557883863701355,0.000637052353874004,0.000117476188877321,0.151828620192349
0.00163582930790475,0.00209789001356851,0.0147875128286022,0.0153663697220032,0.0055784705215639,0.000636815525692679,0.000117457719782651,0.151841284419282
0.001635884775592,0.00209788976969849,0.0147878269990807,0.0153673121875423,0.00557831645244577,0.000636720467220062,0.000117450320510621,0.151846483557324
0.00163590146866044,0.00209788937369199,0.0147879191005061,0.0153675938665666,0.00557826890995445,0.000636692277758157,0.000117448128575743,0.151848055914967
