APL,FCR,FDS,FDP,ED,EI,ECU,ECR
0.0430567949034065,0.00917180696032088,0.0933316633279545,0.00778239152687163,0.0214212712110236,0.0579125856683414,0.0506097987239902,0.000371549491481287
0.0462799187680165,0.00899801829209612,0.104165137959094,0.0108433846532016,0.0251186563006991,0.0825751906851006,0.0534774094546857,0.00338091717690691
0.0497462383147519,0.00884911223988034,0.114125657695166,0.0137738630752727,0.0288308946148838,0.106011177134329,0.0560791428206872,0.00624101920898268
0.0534358976139137,0.00872776081396775,0.123121681143985,0.0165501905144244,0.0325271422952756,0.128040992085201,0.0583938380278535,0.00893029587083025
0.0573248519099956,0.00863633763604539,0.13107503185626,0.0191508319916269,0.0361756905828213,0.148505156189117,0.0604046636421497,0.0114296767638886
0.0613849801055838,0.00857686035736257,0.137922393092027,0.0215567366815873,0.039744377480578,0.167266868775488,0.0620994203551008,0.0137228961576701
0.0655842808692683,0.00855093594232621,0.143616432206231,0.023751661723221,0.0432010163359598,0.184213981991477,0.0634707083469295,0.0157967317934647
0.0698871563922452,0.00855970986694815,0.148126531081063,0.0257224298076769,0.0465138348879018,0.199260310678302,0.0645159565985851,0.0176411639460766
0.0742547865843499,0.00860382057041363,0.151439124943865,0.0274591172802569,0.0496519190600231,0.212346288198275,0.0652373221425071,0.0192494565768342
0.0786455940735052,0.00868336077474713,0.153557669990377,0.0289551719548594,0.0525856563647314,0.223439006205307,0.0656414745132319,0.020618165325155
0.0830157970054795,0.00879784744837997,0.154502267335138,0.0302074605007744,0.0552871739484222,0.232531685522234,0.0657392832894166,0.0217470779779094
0.0873200429961492,0.00894620218187444,0.154308969689078,0.0312162454984495,0.0577307657781159,0.239642625174132,0.0655454257527115,0.0226390934457142
0.0915121137007752,0.00912674356019814,0.153028796342315,0.0319850936844395,0.0598933019819549,0.244813681042017,0.0650779305757978,0.0233000462672372
0.0955456854719451,0.00933719277801871,0.150726486241908,0.0325207194388247,0.0617546111385773,0.248108337076777,0.0643576737455986,0.0237384849033121
0.0993751284914241,0.00957469329023298,0.14747902638295,0.0328327701957193,0.0632978245903378,0.249609445445215,0.0634078438257644,0.0239654128859688
0.10295632535538,0.00983584476545005,0.143374000118315,0.0329335621277475,0.0645096717738174,0.249416722258785,0.0622533940218557,0.0239940019164312
0.106247490275348,0.0101167510556048,0.138507804820901,0.032837774595678,0.0653807172995041,0.247644089402397,0.0609204976921759,0.0238392853411734
0.109209971024404,0.0104130813233478,0.132983789218395,0.0325621111015678,0.0659055334918155,0.244416949296322,0.0594360218789966,0.0235178394293754
0.111809016118604,0.0107201428852405,0.126910357436381,0.0321249342036802,0.0660828051235324,0.239869469362611,0.0578270305167596,0.0230474589109907
0.11401448799817,0.0110329637671986,0.120399080506739,0.0315458823572624,0.0659153645914209,0.234141940224407,0.0561203258521446,0.0224468325083619
0.115801499624396,0.0113463825188904,0.113562849366583,0.0308454773337053,0.0654101550728514,0.227378259603395,0.0543420339162436,0.0217352236282289
0.11715095053293,0.0116551426127531,0.106514097870308,0.0300447311243271,0.064578118363767,0.219723582840986,0.0525172379681695,0.0209321607058404
0.118049941601584,0.0119539888375294,0.0993631199243159,0.0291647607161826,0.0634340058996651,0.211322170404626,0.0506696625890374,0.0200571407707557
0.118492054956608,0.012237763459152,0.092216501051413,0.0282264179114766,0.0619961157803466,0.202315452879259,0.0488214100298765,0.0191293489903805
0.11847749398154,0.0125015004060894,0.0851756813375148,0.0272499400569225,0.0602859634084528,0.192840325588487,0.0469927488409574,0.0181673966336298
0.118013084868614,0.0127405160868918,0.0783356638389442,0.0262546267244279,0.0583278963786183,0.183027678837489,0.0452019527080151,0.0171890799737998
0.117112142765272,0.0129504954278727,0.0717838801153969,0.0252585470266156,0.0561486643736752,0.17300116576279,0.0434651858964063,0.0162111627463718
0.115794203644288,0.0131275713841004,0.0655992223647507,0.0242782820318683,0.0537769534708532,0.16287620676844,0.0417964315253843,0.0152491845572759
0.11408462326606,0.0132683959552383,0.0598512492154182,0.0233287062883794,0.0512428940659,0.152759225539273,0.040207459646553,0.0143172970161068
0.11201404954567,0.0133702008812289,0.0545995691575265,0.0224228115569712,0.0485775529386875,0.142747105244279,0.0387078328483551,0.0134281286589844
0.10961778210745,0.0134308466088986,0.0498934021162401,0.0215715747103624,0.0458124215109331,0.132926846845304,0.0373049469609064,0.01259267924466
0.106935039677908,0.0134488586559023,0.0457713167602546,0.0207838708219438,0.0429789128539792,0.123375408459085,0.0360041032804541,0.011820243714074
0.104008159886386,0.0134234510287742,0.0422611391527752,0.0200664317912763,0.0401078789682805,0.114159706079638,0.0348086077526081,0.0111183658377074
0.100881755911739,0.0133545367366921,0.0393800267994893,0.0194238502295982,0.0372291579299413,0.105336759154012,0.0337198926630715,0.0104928212344393
0.0976018509609088,0.0132427254982652,0.0371347004690108,0.0188586276087601,0.0343711588324772,0.0969539663909948,0.0327376570978111,0.00994762898747244
0.0942150078111744,0.0130893084495073,0.0355218241014036,0.0183712648327192,0.031560491119215,0.0890494957356246,0.0318600227155308,0.00948509051778801
0.0907674690476025,0.0128962294874548,0.0345285208890272,0.0179603924577289,0.0288216433544957,0.0816527690879683,0.0310837007414332,0.00910585381196599
0.087304324004692,0.0126660432595736,0.0341330116371447,0.0176229367924366,0.0261767147241986,0.0747850210582146,0.0304041654865586,0.00880900068519485
0.0838687195327482,0.0124018606103891,0.0343053598254082,0.0173543170931851,0.0236452010477627,0.0684599129616195,0.029815830203168,0.00859215453849595
0.0805011323421499,0.0121072830921625,0.0350083061300798,0.0171486682201039,0.0212438358046493,0.0626841865049728,0.0293122224245417,0.00845160600679234
0.0772387200065378,0.011786328511759,0.0361981736308482,0.0169990826584256,0.0189864853800939,0.0574583439546561,0.0288861571669481,0.00838245391869546
0.0741147654400673,0.0114433493403374,0.0378258242292013,0.0168978657672703,0.0168840966646765,0.0527773415702449,0.02852990668843,0.00837875900062717
0.0711582260232717,0.0110829456365363,0.039837647418938,0.0168367982960803,0.0149446945935254,0.0486312815355216,0.0282353648643952,0.008433707650769
0.0683933941228685,0.0107098743214217,0.042176564149277,0.016807400242038,0.0131734269704867,0.0450060874083904,0.0279942037120158,0.00853978283568572
0.0658396712020232,0.0103289570202755,0.0447830300718758,0.0168011897813428,0.0115726535904136,0.0418841504747022,0.0277980199980549,0.00868893887262832
0.0635114533151256,0.00994498888605344,0.0475960228294415,0.0168099307095064,0.0101420760999945,0.0392449380601422,0.0276384709570596,0.00887277679528899
0.0614181215681285,0.00956265065055158,0.0505539977069077,0.0168258622062153,0.0088789045237292,0.0370655578498954,0.0275073993175532,0.00908271723212376
0.0595641274631951,0.0091864258118697,0.0535957970950599,0.0168419058067188,0.00777805617095129,0.0353212732240809,0.027396948570472,0.00931016817216905
0.0579491606460465,0.00882052466255907,0.0566615025123794,0.0168518457422485,0.00683238254731118,0.0339859644873988,0.0272996694370891,0.00954668549911073
0.0565683861000973,0.00846881675196242,0.0596932220226617,0.0168504797033563,0.00603291968350066,0.0330325321707199,0.027208617766925,0.00978412455504942
0.0554127393320528,0.00813477316579045,0.0626358087585547,0.0168337372254246,0.00536915708379936,0.0324332417878706,0.0271174429204838,0.0100147810862662
0.0544692706406771,0.00782141962556752,0.0654375066322956,0.0167987628201907,0.0048293205702305,0.0321600130643888,0.0270204647449279,0.0102315197105231
0.0537215314367546,0.00753130095563389,0.068050518485944,0.0167439616499161,0.00440066460779195,0.0321846590937529,0.0269127370395012,0.0104278878229731
0.0531499955105037,0.00726645701753991,0.0704314926418645,0.0166690071033598,0.00406976996682044,0.0324790813886897,0.0267900959661613,0.01059821295349
0.0527325073928069,0.00702840980121524,0.0725419265186741,0.0165748115135002,0.00382284263680577,0.0330154264282876,0.0266491929118898,0.0107376820516902
0.05244475091446,0.00681816104441383,0.0743484891858589,0.0164634627210122,0.00364600992249336,0.0337662097232689,0.0264875123590199,0.0108424018856845
0.052260733567087,0.00663619948780911,0.0758232666583276,0.0163381297194782,0.00352560988781379,0.0347044146920119,0.0263033757951354,0.0109094404992701
0.0521532844423865,0.00648251659217605,0.0769439332179124,0.0162029405018314,0.00344847072695211,0.0358035748044595,0.0260959322952663,0.0109368502375384
0.0520945638619519,0.00635662935699226,0.0776938500046648,0.0160628354158865,0.00340217705153469,0.037037847695878,0.0258651357218058,0.0109236730100019
0.0520565811729395,0.0062576089426121,0.0780620912598494,0.0159234001381304,0.00337532036459802,0.0383820890410388,0.0256117085007888,0.0108699282616755
0.0520117146784846,0.00618411405520035,0.0780433999792735,0.0157906833556614,0.00335773112219497,0.0398119324364444,0.0253370927927655,0.0107765840279441
0.0519332251640976,0.00613442829579035,0.0776380772489839,0.0156710049324977,0.00334068979748697,0.0413038800451182,0.0250433910494659,0.0106455117979081
0.0517957527155704,0.00610650071205488,0.0768518114842648,0.0155707604768781,0.00331711429272165,0.042835407315691,0.0247332987884472,0.0104794265952461
0.0515757859720637,0.00609798868537829,0.0756954537273494,0.0154962278155652,0.00328172094877224,0.0443850833682625,0.0244100324594752,0.0102818144058466
0.0512520927192629,0.00610630231980184,0.0741847429355218,0.0154533801491523,0.00323115642965167,0.0459327067428888,0.0240772545182538,0.010056849538432
0.0508060998497727,0.00612864975473205,0.0723399829032371,0.0154477099373018,0.0031640980319804,0.0474594547226114,0.0237389968931098,0.00980930452202201
0.05022221068298,0.00616208314712542,0.0701856721473365,0.0154840669933056,0.00308132046214074,0.0489480435413381,0.0233995835077925,0.00954445481939963
0.04948805052479,0.00620354529182545,0.0677500896479947,0.0155665138479016,0.00298572768174464,0.0503828959249944,0.0230635524526901,0.0092679802924851
0.0485946364514252,0.00624991688322335,0.0650648416653158,0.0156982011299868,0.00288234882863973,0.0517503109663068,0.0227355786377867,0.00898586512494974
0.0475364719637226,0.00629806426988218,0.0621643766617277,0.0158812654087137,0.00277829739471851,0.0530386298136384,0.0224203981392924,0.00870429768301735
0.0463115691208682,0.00634488727369862,0.05908547551091,0.0161167514918342,0.00268269304886097,0.0542383904009113,0.0221227356884632,0.00842957149477113
0.0449214008582504,0.00638736633500303,0.0558667224924097,0.0164045605238634,0.00260654600576101,0.0553424656656416,0.0218472365117008,0.00816798817708451
0.0433707875216449,0.00642260802451896,0.0525479609187626,0.0167434245966059,0.00256260458231993,0.0563461813941534,0.0215984030533557,0.0079257628369853
0.0416677247448821,0.00644788791684792,0.0491697375244461,0.0171309081305348,0.00256516729689401,0.0572474106563881,0.0213805366829027,0.00770893232356865
0.0398231627902988,0.00646068997619732,0.045772741692807,0.0175634358211279,0.00262986131862044,0.0580466409184466,0.0211976847125394,0.00752326674505069
0.037850748696216,0.00645874191475319,0.0423972478325259,0.0180363463027325,0.00277338928380327,0.0587470081757459,0.0210535935557543,0.00737418482804649
0.0357665418391184,0.00644004631414977,0.0390825704344899,0.0185439700888972,0.00301324682528995,0.0593542916998264,0.0209516690138709,0.00726667382625539
0.0335887122236445,0.00640290747640363,0.0358665408850556,0.0190797300215084,0.00336741383076054,0.0598768638648827,0.0208949442238297,0.00720521462711051
0.0313372299581958,0.00634595390482905,0.0327850135460523,0.0196362621855226,0.00385402332714526,0.0603255915261824,0.0208860552767162,0.00719371252595545
0.0290335535461344,0.00626815617828361,0.0298714073112475,0.0202055547113444,0.00449101272993537,0.0607136877903812,0.0209272244719623,0.00723543412958462
0.0267003233176148,0.00616884002274126,0.0271562882629693,0.020779101249422,0.00529576277043845,0.0610565148109309,0.0210202513659237,0.00733295110016558
0.0243610647830052,0.00604769461506073,0.0246669987461363,0.0213480655960621,0.00628472963102217,0.0613713384758827,0.0211665116564376,0.00748809177034126
0.022039905411663,0.00590477644680009,0.0224273377782366,0.0219034539222141,0.00747307588506166,0.061677034450481,0.0213669633794969,0.00770190181277658
0.0197613072718675,0.00574050930598102,0.0204572970830387,0.0224362908519593,0.00887430606951603,0.0619937440016739,0.0216221594897747,0.00797461502567379
0.0175498168245503,0.00555568101878378,0.0187728561390936,0.022937795061176,0.0104999131560279,0.0623424793729292,0.0219322661085662,0.00830563504548111
0.0154298320776174,0.0053514374996459,0.0173858384962071,0.0233995496896725,0.0123590426815399,0.0627446820457664,0.0222970862493949,0.00869352857623476
0.0134253866733881,0.0051292744288003,0.0163038303918597,0.0238136632273668,0.0144581816752715,0.0632217415930632,0.0227160890624826,0.00913603046581872
0.0115599503350574,0.00489102664433498,0.0155301615628245,0.0241729173948708,0.0168008796232584,0.0637944862135432,0.0231884442530724,0.00963006065402622
0.00985624516706393,0.00463885521419188,0.0150639471434683,0.024470899172445,0.019387508452348,0.0644826569832694,0.0237130608584405,0.0101717528149979
0.00833607728440947,0.00437523215222805,0.0149001888042684,0.0247021140247906,0.0222150679487595,0.0653043766210417,0.0242886296954981,0.0107564944083613
0.00702018296523908,0.00410292282114445,0.0150299328817006,0.0248620771269097,0.0252770423445343,0.0662756226896245,0.0249136693354336,0.0113789776553538
0.00592808813291041,0.00382496616505128,0.0154404830229278,0.0249473801107664,0.028563313056146,0.0674097163208862,0.0255865757663751,0.0120332606442275
0.00507797982407779,0.00354465297548959,0.0161156645594376,0.0249557325039869,0.032060131610443,0.0687168400861325,0.0263056755268881,0.0127128376090742
0.0044865884446823,0.0032655023773893,0.0170361372690975,0.0248859787378969,0.0357501556247028,0.0702036011019566,0.0270692814447173,0.0134107175383918
0.00416907984835437,0.00299123662050633,0.0181797525009249,0.0247380924394295,0.0396125495195017,0.071872656597946,0.027875749991738,0.014119510448808
0.00413895637677601,0.00272575409986085,0.019521950033799,0.024513149500002,0.0436231505233765,0.073722418236089,0.0287235396656406,0.0148315206026089
0.00440796596677476,0.00247310034140964,0.0210361894631338,0.0242132811494516,0.0477546993058083,0.0757468487601486,0.0296112701348151,0.0155388455904055
0.0049860185104777,0.0022374365255844,0.0226944101629434,0.0238416088105808,0.0519771329779894,0.0779353614527259,0.0305377815724888,0.0162334799072911
0.00588110900101352,0.00202300503687854,0.0244675129237239,0.0234021635587457,0.0562579362273419,0.0802728301508082,0.0315021927026505,0.0169074216733383
0.00709924747882068,0.00183409156389149,0.0263258553341782,0.0228997938156779,0.0605625445521487,0.0827397147224363,0.0325039554248241,0.0175527812752057
0.00864439618573952,0.00167498344233211,0.0282397519087847,0.0223400649118492,0.0648547924576025,0.085312303332112,0.0335429040600924,0.0181618905656802
0.0105184144570388,0.00154992419708612,0.0301799691397773,0.0217291534892554,0.0690973991277715,0.0879630684504059,0.0346192980799361,0.0187274107964612
0.0127210118030409,0.00146306451474981,0.0321182055264423,0.0210737391717331,0.0732524842087013,0.0906611289070466,0.0357338581061947,0.0192424371773178
0.0152497096559319,0.001418410065274,0.0340275473616712,0.0203808957784285,0.0772821063312629,0.0933728061833031,0.0368877953836395,0.0197005981929801
0.0180998125217534,0.00141976665782009,0.0358828923616546,0.0196579841453039,0.0811488160547884,0.0960622603332265,0.0380828343769551,0.0200961483165468
0.0212643896949715,0.00147068327486084,0.0376613344551693,0.0189125480139577,0.0848162125827757,0.0986921896758934,0.03932122689159,0.0204240530266103
0.0247342691292675,0.00157439368717318,0.0393425034024905,0.0181522138156257,0.0882494911065625,0.101224578329806,0.0406057551398214,0.0206800647386379
0.0284980454036565,0.00173375756545169,0.0409088522915084,0.0173845949944717,0.091415967000538,0.103621475843895,0.041939720972845,0.0208607877849474
0.0325421039012483,0.00195120216663113,0.0423458857379912,0.0166172015634297,0.0942855648635637,0.105845792396726,0.0433269189007835,0.0209637306388229
0.0368506632647981,0.00222866572588402,0.0436423230439943,0.0158573553762052,0.0968312636787887,0.107862090322898,0.0447715912490632,0.0209873442618265
0.0414058378157748,0.00256754368115007,0.0447901934445598,0.0151121110957349,0.0990294924715434,0.109637348986921,0.0462783646558497,0.0209310463570509
0.0461877207652198,0.00296863887345536,0.0457848639068822,0.0143881826228909,0.100860471844439,0.111141678285451,0.0478521679229297,0.0207952319612396
0.0511744876150007,0.00343211687606528,0.0466250025423153,0.0136918751029579,0.102308494891328,0.112348958103088,0.0494981316818672,0.0205812708414406
0.056342517556397,0.00395746756033943,0.0473124815663415,0.0130290232265936,0.103362138824582,0.113237386291394,0.0512214699250863,0.0202914915885452
0.0616665296943592,0.00454347395649802,0.0478522228818751,0.0124049369049786,0.104014399593763,0.113789924188433,0.0530273421184551,0.0199291517473172
0.0671197309968263,0.00518818948538682,0.0482519883468904,0.0118243552614586,0.1042627459704,0.113994633576213,0.0549206937536668,0.0194983933745784
0.0726739739844196,0.0058889247037886,0.0485221170898561,0.0112914095216991,0.104109094974067,0.113844899868003,0.0569060742995063,0.0190041840531202
0.0782999239661364,0.00664224475096311,0.0486752138447054,0.0108095952347011,0.103559714579897,0.113339534158003,0.0589874344668446,0.0184522442920455
0.0839672373586669,0.00744397863876885,0.0487257945681622,0.0103817542249756,0.102625060300036,0.112482746681605,0.0611679082962785,0.01784896304395
0.0896447532971963,0.00828924134984883,0.0486898978940037,0.0100100664499635,0.101319549736052,0.111283989064251,0.0634495882529975,0.0172013034266208
0.095300699457085,0.00917246941560883,0.0485846725702865,0.00969605150668136,0.099661277272924,0.10975767076922,0.0658333020445505,0.0165167004780501
0.100902910244705,0.0100874703096844,0.0484279512589093,0.00944057910131908,0.0976716724493627,0.107922763126135,0.0683183983077184,0.0158029522192953
0.106419053617122,0.0110274856395531,0.0482378198623491,0.0092438873884638,0.0953751093140656,0.105802309179203,0.0709025464134592,0.0150681051152685
0.111816863232194,0.0119852677124244,0.0480321901642252,0.00910560781403068,0.0927984780303906,0.103422857698921,0.0735815548648344,0.0143203354157043
0.117064374982212,0.0129531685575247,0.0478283834377322,0.00902479518394729,0.0899707320638344,0.100813836862054,0.0763492130118251,0.0135678285542014
0.12213016999151,0.0139232399199201,0.0476427337124553,0.00899996207150961,0.0869224232934963,0.0980068817739907,0.0791971615432866,0.012818659394319
0.126983628465967,0.0148873421820333,0.0474902207072624,0.00902911708677252,0.0836852340833539,0.0950351318129309,0.0821147979883424,0.0120806763163293
0.131595199154584,0.0158372597463468,0.0473841431375466,0.00910980667752117,0.0802915124829107,0.0919325171042533,0.0850892238280886,0.011361391844265
0.135936686824399,0.0167648202383963,0.047335842620251,0.00923915996636501,0.0767738159265364,0.088733056095199,0.0881052392633156,0.0106678820100222
0.139981555186793,0.0176620149738847,0.0473544866741153,0.00941393597204589,0.0731644695689121,0.0854701865371554,0.0911453896688954,0.0100066962755293
0.143705237149563,0.0185211183223425,0.0474469168658093,0.00963057267303034,0.0694951466724428,0.0821761496941795,0.0941900643459651,0.00938377954320492
0.14708544063609,0.01933480358836,0.0476175656119794,0.00988523766548617,0.0657964792892581,0.0788814435524796,0.0972176448574531,0.00880440739925345
0.150102437440217,0.020096252637413,0.0478684426168169,0.0101738804548166,0.0620977071019487,0.0756143570540649,0.100204698634541,0.00827313521943806
0.152739324456376,0.020799256134866,0.0481991892997076,0.0104922865549397,0.058426370329808,0.0724005940354307,0.103126213865854,0.00779376122668145
0.154982250268968,0.021438301555282,0.048607196930468,0.0108361334944186,0.0548080496630315,0.0692629918323765,0.105955873094116,0.00736930310353781
0.156820603890204,0.0220086470628135,0.0490877818166604,0.0112010485761523,0.0512661537608552,0.0662213354893952,0.108666364029284,0.00700198743672886
0.158247164125625,0.0225063804942933,0.0496344091393889,0.0115826678957123,0.0478217536268138,0.0632922649000711,0.111229725231588,0.00669325120373414
0.159258205689459,0.0229284633833945,0.0502389561957914,0.0119766957524269,0.0444934627241947,0.060489268893842,0.113617721141198,0.00644375464991493
0.159853553425381,0.0232727598633333,0.0508920058852136,0.0123789631591975,0.0412973614381513,0.0578227570252058,0.115802237988693,0.00625340508604525
0.160036574190124,0.0235380498428033,0.0515831618537045,0.0127854837117033,0.0382469641107345,0.0553001975356927,0.117755692026906,0.00612139118596175
0.159814099569971,0.023724026014872,0.0523013769671995,0.013192504904818,0.0353532263523339,0.0529263094997871,0.119451443773004,0.0060462272119728
0.159196279664899,0.0238312751922124,0.053035285930532,0.0135965532988181,0.0326245897854932,0.0507032982004767,0.120864214176231,0.00602580637092197
0.158196375091407,0.0238612455979819,0.0537735314029725,0.0139944726063791,0.0300670608191001,0.0486311243178911,0.121970498305168,0.00605746234842905
0.156830497449958,0.0238162023670106,0.0545050727215362,0.0143834543930843,0.0276843192645952,0.0467077984252401,0.122748968932425,0.00613803792986604
0.155117306121807,0.023699173265319,0.0552194681119341,0.014761061248625,0.025477851414328,0.044929691771034,0.123180859825943,0.0062639593914725
0.153077665131717,0.0235138860884255,0.0559071242287719,0.0151252420994659,0.0234471011809235,0.0432918529809832,0.123250319494121,0.00643131503020252
0.150734263635196,0.0232646992015404,0.0565595095464919,0.0154743394437579,0.0215896329745325,0.0417883201381977,0.122944729463013,0.00663593589446527
0.148111207798984,0.0229565271700357,0.0571693290742474,0.015807088903496,0.0199013012730977,0.0404124195946955,0.122254983973221,0.00687347662186935
0.145233597119512,0.0225947637626681,0.0577306569433854,0.0161226122182818,0.0183764237137964,0.0391570459812912,0.121175727618503,0.00713949438046123
0.142127100890746,0.0221852043034205,0.0582390227723991,0.0164204051788206,0.0170079562103367,0.0380149206887649,0.119705544154741,0.00742952420541139
0.138817548472295,0.0217339686195773,0.0586914491885192,0.0167003217843592,0.0157876694483334,0.0369788272369142,0.117847087749517,0.00773914933228835
0.135330542098439,0.0212474254129633,0.0590864410199704,0.0169625553486579,0.0147063259989173,0.0360418214975916,0.115607150042137,0.00806406522503676
0.13169109792393,0.0207321189264222,0.0594239299590812,0.0172076168570608,0.01375385686155,0.0351974145563661,0.112996661076597,0.00840013594496897
0.127923321306764,0.0201946988664111,0.0597051803576779,0.0174363107477333,0.0129195362269006,0.0344397271060458,0.110030626384017,0.0087434416899445
0.124050123969662,0.0196418542382502,0.0599326614053646,0.0176497083680393,0.0121921536347855,0.0337636158833782,0.106728003430741,0.00909031685817616
0.120092991000774,0.0190802510374071,0.0601098894605024,0.0178491195360405,0.0115601831496542,0.033164773684561,0.103111518161372,0.00943737856959881
0.116071802908369,0.0185164731805329,0.060241244089648,0.0180360627688589,0.011011949417396,0.0326398043086263,0.0992074205303468,0.00978154585200742
0.112004713459688,0.0179569660471772,0.0603317629130733,0.0182122346048417,0.0105357903908415,0.0321862727838062,0.0950451798951899,0.0101200496444482
0.107908081442645,0.0174079823697625,0.0603869225714168,0.0183794779341115,0.0101202161726715,0.0318027306992052,0.0906571257430196,0.0104504338282981
0.103796454650673,0.0168755305816972,0.0604124147475416,0.0185397487253946,0.00975406299895183,0.0314887169170066,0.0860780435296968,0.0107705479087327
0.099682605095224,0.0163653257593866,0.0604139262491767,0.0186950805012349,0.00942664106496685,0.0312447347584818,0.0813447368845422,0.0110785325086
0.0955776132067777,0.0158827428455169,0.0603969304741913,0.0188475463770635,0.00912787476510811,0.0310722069887148,0.0764955656124644,0.0113727991634207
0.0914909954333859,0.0154327712973093,0.0603664953077915,0.0189992190905754,0.00884843389489151,0.0309734093198446,0.0715699666882677,0.0116520058271354
0.087430867192564,0.0150199701922766,0.0603271112186122,0.0191521297678204,0.00857985424605495,0.0309513827896675,0.0666079654693031,0.0119150291808865
0.0834041333453727,0.014648423210285,0.060282543277697,0.0193082259207697,0.00831464580217522,0.0310098259909819,0.0616496860590445,0.0121609346741254
0.0794166999014602,0.0143216935665779,0.060235711351782,0.0194693286618907,0.00804638675385467,0.0311529690791017,0.0567348712787187,0.0123889453467396
0.0754737013958441,0.0140427796292464,0.0601886030293964,0.0196370890432793,0.00776980198164798,0.0313854317511253,0.0519024226192047,0.0125984107582277
0.0715797369444956,0.0138140723710591,0.0601422233069806,0.0198129439196895,0.00748082527643193,0.0317120667551676,0.0471899686323265,0.0127887776144067
0.0677391052814455,0.0136373157924299,0.0600965833751966,0.0199980724028122,0.00717664501263198,0.0321377900161964,0.0426334679080584,0.0129595637786538
0.0639560278815472,0.0135135710653444,0.0600507281463981,0.0201933543146838,0.00685573305590853,0.0326673989443473,0.0382668513552627,0.0131103371704912
0.0602348507583526,0.0134431848617336,0.0600027993130179,0.0203993317680851,0.0065178566186598,0.0333053815076118,0.0341217075496107,0.0132407005773471
0.056580218710243,0.0134257625322623,0.0599501287058741,0.0206161744671192,0.00616407294173991,0.0340557193393928,0.030227013563986,0.0133502828131297
0.0529972189117977,0.0134601474112432,0.0598893558776981,0.0208436492394898,0.00579670703517937,0.0349216878735574,0.0266089119581864,0.0134387361746006
0.0494914920760969,0.0135444082213517,0.0598165640805841,0.0210810947784659,0.00541931299149088,0.0359056557054266,0.0232905332638355,0.0135057398266281
0.0460693087188197,0.0136758369847352,0.0597274297451754,0.0213274031496387,0.00503661941685807,0.0370088853561422,0.0202918624528632,0.0135510085649898
0.0427376078100604,0.0138509597828417,0.0596173814705612,0.0215810097822148,0.00465445940747399,0.0382313387277953,0.0176296469707618,0.0135743063482745
0.0395039971695055,0.014065562239981,0.0594817644465722,0.0218398932041078,0.00427968551704847,0.0395714920936547,0.0153173430258472,0.0135754640458746
0.0363767182882893,0.0143147310863017,0.0593160047062634,0.0221015851828497,0.0039200704039296,0.041026166502787,0.0133650965838424,0.0135544009679041
0.0333645808317865,0.0145929126828387,0.0591157659567555,0.0223631917701089,0.00358419418705067,0.0425903792765933,0.0117797559157619,0.013511149819154
0.0304768726540965,0.0148939888104159,0.0588770918448961,0.0226214258667908,0.00328131981522365,0.0442572213105292,0.0105649130658783,0.0134458846058263
0.0277232503395553,0.0152113693197286,0.058596528548238,0.0228726518102057,0.00302125784881088,0.0460177646389987,0.00972097185680993,0.0133589506230026
0.0251136147459356,0.015538100551258,0.0582712255010588,0.0231129418624352,0.00281422201638935,0.0478610055890419,0.00924523994484415,0.0132508951231357
0.0226579760426961,0.0158669877658827,0.057899014580944,0.0233381437546962,0.00267067695320768,0.0497738500129736,0.00913204207591841,0.0131224969616164
0.0203663125268992,0.016190729085592,0.0574784690646022,0.023543958055849,0.00260117973633674,0.0517411475131344,0.00937285122160054,0.0129747935575793
0.0182484266806689,0.0165020576924012,0.0570089426602595,0.023726023812583,0.00261621709822828,0.0537457806209888,0.00995643394029296,0.0128091037925599
0.0163138009651461,0.0167938884848944,0.0564905871467393,0.0238800102581727,0.00272604038699563,0.0557688128700293,0.0108690063839517,0.0126270458508955
0.0145714552167673,0.017059465170314,0.0559243466238067,0.0240017117443333,0.00294050037686974,0.0577896975522862,0.012094397976151,0.0124305493670244
0.0130298070603039,0.0172925038842652,0.0553119276054062,0.0240871430331262,0.00326888397899374,0.0597865468734835,0.0136142208465969,0.0122218615027507
0.0116965361691797,0.0174873298021365,0.0546557464337772,0.0241326325740332,0.00371975485188283,0.0617364587458732,0.0154080443351248,0.0120035466529916
0.0105784525758721,0.0176390036502491,0.0539588578062338,0.0241349117612339,0.00430079984669948,0.0636158954042669,0.0174535748416125,0.0117784792849298
0.00968136895975623,0.0177434352472205,0.0532248697547142,0.0240911978941299,0.00501868317654538,0.0654011047314221,0.0197268416202616,0.0115498290079197
0.00900997704597273,0.0177974809688297,0.0524578506239718,0.0239992678731022,0.0058789102712183,0.0670685722566289,0.0222023889180146,0.0113210367271481
0.00856772877443959,0.0177990216391318,0.051662232270097,0.0238575194169715,0.0068857034544685,0.0685954901204065,0.0248534747993107,0.0110957809810517
0.00835672351930724,0.0177470175523583,0.0508427115447911,0.0236650171432653,0.00804189173287781,0.0699602292788669,0.0276522773849579,0.0108779342602378
0.00837760315086392,0.0176415383648354,0.0500041505955842,0.023421521935704,0.00934881697625387,0.0711428022549912,0.0305701098035196,0.0106715099902468
0.00862945697510592,0.0174837670936867,0.0491514763116229,0.0231275031866848,0.0108062585652436,0.0721253043991644,0.0335776455526059,0.0104806016107512
0.00910973850097481,0.017275978808717,0.0482895801190652,0.0227841342431853,0.0124123782966206,0.0728923206410594,0.0366451559623939,0.0103093155471859
0.00981419575247711,0.0170214952369663,0.0474232206980213,0.0223932713271103,0.0141636870378877,0.0734312832336661,0.0397427609677425,0.0101616997676138
0.010736816789127,0.0167246163745645,0.0465569334445446,0.0219574157183542,0.016055034250633,0.0737327668900944,0.0428406934250879,0.0100416692588471
0.0118697923238313,0.0163905301365208,0.0456949511524271,0.0214796591281768,0.0180796210083796,0.0737907116652397,0.0459095757395552,0.00995292951372721
0.0132034977228913,0.016025201718198,0.0448411401386203,0.0209636132974133,0.0202290365588651,0.0736025691809188,0.0489207057437171,0.00989889913715112
0.0147264970793328,0.0156352454579596,0.0439989547595566,0.0204133263927241,0.0224933179372602,0.0731693717873682,0.0518463471847534,0.00988263288747288
0.0164255723186365,0.0152277830146965,0.0431714112917036,0.0198331899746078,0.024861031755987,0.0724957251221644,0.0546600194365258,0.00990674677631321
0.0182857803151502,0.0148102921352999,0.042361080485075,0.0192278406105727,0.0273193771477234,0.0715897235151266,0.057336781310972,0.00997334715505544
0.0202905407151669,0.0143904500753238,0.0415700974561289,0.0186020597674093,0.0298543088640467,0.0704627885760975,0.0598535047617594,0.0100839659159234
0.0224217565856698,0.013975975325354,0.0408001878173684,0.0179606752639817,0.032450679520094,0.069129435222956,0.0621891350645189,0.0102395039255814
0.0246599691887763,0.0135744711919563,0.0400527095118855,0.0173084675825306,0.0350923995900079,0.0676069744402697,0.0643249337292311,0.0104401845391418
0.0269845471906345,0.0131932749124401,0.0393287102009998,0.0166500843083467,0.0377626128129155,0.0659151657370242,0.0662446987542958,0.0106855186457372
0.0293739095009172,0.0128393160306459,0.0386289999496904,0.0159899655357239,0.0404438836549535,0.0640758329793163,0.0679349555278422,0.0109742824155513
0.0318057797037155,0.0125189875125878,0.0379542383932736,0.0153322822449597,0.0431183931577749,0.0621124556054727,0.0693851123341019,0.0113045088044269
0.0342574686461137,0.0122380325212717,0.0373050347619111,0.0146808887005314,0.0457681400330013,0.0600497458291058,0.0705875767762014,0.0116734938156571
0.0367061802808455,0.0120014490600714,0.0366820582295828,0.0140392891605223,0.0483751448282564,0.0579132225051658,0.0715378321343815,0.0120778184002063
0.0391293345839597,0.0118134139709778,0.0360861549351876,0.0134106187846867,0.050921655726157,0.0557287929145586,0.0722344741245612,0.0125133866242831
0.0415049005330035,0.0116772270817404,0.0355184665277361,0.0127976384801942,0.0533903543248136,0.0535223535693208,0.072679207698783,0.0129754803275591
0.0438117318418123,0.0115952756902323,0.0349805436735422,0.0122027432442081,0.0557645583601431,0.051319419597552,0.0728768017184263,0.0134588299519725
0.0460298983298136,0.0115690190340177,0.0344744475525259,0.0116279831417783,0.0580284168021705,0.0491447897362036,0.0728349992600081,0.0139577005688592
0.0481410061487284,0.0115989918321046,0.0340028332840037,0.0110750955445223,0.0601670924297531,0.0470222514962859,0.0725643836312008,0.0144659914289825
0.0501285000508721,0.0116848254631505,0.0335690111306715,0.0105455469391784,0.0621669280351391,0.0449743288401917,0.0720782034969584,0.0149773467279595
0.0519779399177735,0.0118252850555599,0.0331769835914108,0.0100405824942819,0.0640155941419603,0.0430220724161638,0.071392162938976,0.0154852748434501
0.0536772423015832,0.0120183207662537,0.0328314583353967,0.00956128150808463,0.0657022174643941,0.0411848906404182,0.0705241823138658,0.0159832731166413
0.0552168773635933,0.0122611316825893,0.0325378376522272,0.0091086167931785,0.0672174891940113,0.0394804193584411,0.0694941339093996,0.0164649552643991
0.0565900131956379,0.0125502408576938,0.0323021845631858,0.00868351601444442,0.0685537504635647,0.0379244279901795,0.0683235553212792,0.0169241785248237
0.0577926025499561,0.0128815797851561,0.0321311650299126,0.00828692301227061,0.0697050508586731,0.0365307599132641,0.0670353445602097,0.017355167394979
0.0588234101070149,0.0132505802874412,0.0320319660150321,0.00791985713209127,0.0706671763855529,0.0353113038434198,0.0656534431337891,0.0177526303566453
0.0596839799190685,0.0136522717549718,0.0320121904946039,0.00758346842662441,0.0714376456843405,0.0342759921240601,0.064202515118252,0.0181118658593224
0.0603785421650205,0.0140813820203018,0.0320797322554312,0.00727908646913623,0.0720156762767645,0.0334328222673552,0.0627076303227525,0.018428854389147
0.0609138582468692,0.0145324406029579,0.032242634782047,0.00700826076669299,0.072402124733835,0.0327878995185985,0.0611939577536976,0.0187003344663969
0.0612990057850806,0.0149998832388479,0.0325089393108985,0.00677279135862619,0.0725994045676578,0.0323454997139988,0.0596864727934937,0.018923861346161
0.0615451094647267,0.0154781563665871,0.0328865270418339,0.00657474874288757,0.0726113837515093,0.032108152497339,0.0582096793368709,0.0190978475130244
0.0616650276836183,0.0159618199951391,0.0333829596007461,0.0064164824793215,0.0724432626136512,0.0320767447147187,0.0567873469824785,0.019221583818596
0.0616730065322789,0.0164456475699143,0.0340053203866717,0.00630061787489398,0.0721014339896763,0.032250642630565,0.0554422630650252,0.0192952402047008
0.0615843116112122,0.0169247219601406,0.0347600579763083,0.00623004046037895,0.0715933301606495,0.0326278299951365,0.0541959996830855,0.0193198459110137
0.0614148467838159,0.0173945270804433,0.0356528318847389,0.00620786841413127,0.0709272637089538,0.0332050575184296,0.0530686967048501,0.0192972505111182
0.0611807686719407,0.0178510345738681,0.036688360893558,0.00623741332323592,0.070112270686178,0.0339779982164134,0.0520788625234657,0.0192300683591608
0.0608981059083338,0.0182907844545942,0.0378702747560639,0.0063221297070084,0.0691579637318163,0.0349414024615857,0.0512431943254709,0.019121609481669
0.0605823920498449,0.0187109581196596,0.0392009710765141,0.00646555394549817,0.0680744001590956,0.0360892464823789,0.0505764183589091,0.0189757996288348
0.0602483204451711,0.0191094420169458,0.0406814800917862,0.00667123372471586,0.0668719667011015,0.0374148685969808,0.0500911491426299,0.0187970918743861
0.0599094284669206,0.0194848804638785,0.042311340434021,0.00694264952089863,0.0655612799714114,0.0389110885811429,0.0497977664530259,0.0185903723072212
0.059577817581389,0.0198367165078949,0.0440884883015903,0.00728312975646161,0.0641531002057466,0.0405703069085497,0.0497043104703576,0.018360862735382
0.0592639146901951,0.0201652201032248,0.0460091611650117,0.0076957612493196,0.0626582554572072,0.0423845814869079,0.0498163977011267,0.0181140235362762
0.0589762786838159,0.02047150294827,0.0480678164586247,0.0081832967804691,0.0610875739700074,0.0443456792853621,0.0501371621129022,0.01785545965047
0.0587214538625462,0.0207575189074736,0.0502570663224576,0.0087480619786946,0.0594518236518194,0.0464450994363455,0.0506672265759838,0.0175908322605649
0.0585038693243768,0.0210260484859799,0.0525676309190077,0.0093918639876432,0.0577616588285163,0.0486740647847681,0.0514047089940313,0.0173257780536418
0.0583257818647847,0.0212806660204798,0.0549883142314833,0.0101159043427001,0.0560275749778958,0.0510234812562559,0.0523452656448099,0.0170658372232669
0.0581872599244679,0.021525689122675,0.0575060065939643,0.0109206982383197,0.0542598711882583,0.0534838680522337,0.0534821717000043,0.0168163905271063
0.0580862073267599,0.0217661110090149,0.0601057170213318,0.0118060021697581,0.0524686181420093,0.0560452650014358,0.054806436370695,0.0165826048893227
0.0580184272479446,0.0220075171440137,0.0627706364672928,0.0127707518192598,0.0506636283654018,0.0586971248244067,0.0563069483812315,0.0163693865309453
0.0579777281187062,0.0222559877228724,0.0654822319254433,0.0138130118910888,0.0488544262880043,0.0614281974777555,0.0579706468906927,0.0161813405870346
0.0579560730241865,0.0225179869512145,0.0682203712634262,0.0149299392800834,0.0470502177031629,0.0642264133707239,0.0597827135206119,0.0160227364926869
0.0579437724924442,0.0228002395242001,0.0709634793784889,0.0161177604485748,0.0452598603982967,0.0670787736311654,0.0617267823716975,0.0158974787641832
0.05792971873679,0.0231095947779724,0.073688726896297,0.0173717632495577,0.0434918390218093,0.069971257781442,0.0637851661522921,0.0158090828015065
0.0579016586220498,0.0234528796666817,0.0763722522664034,0.0186863028890787,0.0417542470662253,0.0728887603659247,0.0659390971950767,0.0157606549398957
0.0578465022400365,0.0238367426994594,0.0789894161459975,0.0200548214807681,0.0400547773256563,0.0758150670889166,0.0681689818524673,0.0157548756961848
0.0577506628017684,0.0242674918839535,0.0815150843463987,0.0214698807375261,0.0384007204682512,0.0787328785227372,0.0704546653782036,0.0157939853822356
0.0576004213338985,0.0247509301877825,0.0839239342298504,0.0229232075727612,0.0367989704498824,0.081623887010148,0.0727757019066841,0.0158797717852791
0.0573823074566872,0.0252921917730052,0.0861907797568862,0.0244057523733795,0.0352560353899083,0.0844689099714188,0.075111621203889,0.0160135599927817
0.0570834857190703,0.0258955815388817,0.0882909115142756,0.0259077592099977,0.0337780528767303,0.0872480796654399,0.077442182026277,0.0161962043315605
0.0566921349460716,0.0265644201786299,0.0902004486993962,0.0274188466721327,0.0323708091378844,0.0899410862887746,0.079747602283032,0.0164280819848161
0.0561978064805794,0.027300897447084,0.0918966989740912,0.0289280980184427,0.031039761799358,0.0925274692110519,0.0820087588416737,0.0167090877515794
0.0555917478355667,0.0281059373517303,0.0933585191765475,0.0304241599554077,0.0297900657766127,0.0949869495531751,0.0842073539739652,0.0170386298011512
0.054867181311361,0.0289790799114964,0.0945666671514261,0.0318953501870222,0.0286266009806564,0.0972997948127509,0.0863260495619895,0.0174156268278714
0.0540195309753589,0.0299183843483148,0.0955041345479904,0.0333297744273621,0.0275539993511867,0.0994472028365233,0.0883485723417345,0.0178385072846638
0.0530465938226869,0.0309203579288232,0.0961564523130234,0.0347154534632459,0.0265766681981622,0.101411690371871,0.0902597925871969,0.0183052111205853
0.0519486509801093,0.0319799138928285,0.09651196340759,0.0360404599465472,0.025698807338973,0.103177472118992,0.0920457766631933,0.0188131940296064
0.0507285146835283,0.0330903615995136,0.0965620591414721,0.0372930631874007,0.0249244186375753,0.10473081887797,0.0936938140199294,0.0193594342477818
0.0493915089657345,0.0342434318415716,0.0963013748098327,0.0384618790375455,0.0242573075384792,0.106060386243731,0.0951924218453124,0.0199404424637535
0.0479453861494001,0.0354293395984597,0.0957279376401033,0.039536021463308,0.0237010763802825,0.107157506370785,0.096531334092104,0.020552276060421
0.0464001856100992,0.0366368852166073,0.0948432589039487,0.0405052526390793,0.0232591087218113,0.108016433437751,0.0977014842606448,0.0211905592508059
0.0447680442909497,0.037853593704043,0.0936523643880864,0.0413601291502376,0.022934543605065,0.108634530290953,0.0986949921188432,0.0218505104177153
0.0430629692469002,0.0390658908526977,0.0921637620744455,0.0420921428142515,0.0227302392189457,0.109012383150358,0.0995051632327132,0.0225269772633913
0.041300581363798,0.0402593139555419,0.0903893504814618,0.0426938552182168,0.0226487264735823,0.109153834679951,0.100126507007329,0.0232144797944686
0.0394978379187885,0.0414187535526953,0.0883442733166015,0.0431590248263666,0.0226921539142003,0.10906593189644,0.1005547743471,0.0239072609900138
0.0376727410141781,0.0425287209258091,0.0860467248827354,0.043482724250957,0.0228622256653164,0.108758791912388,0.100787011045355,0.0245993450830901
0.0358440389050893,0.0435736346436734,0.0835177083122905,0.0436614437717033,0.0231601336160414,0.108245392657629,0.100821619198244,0.0252846035151345
0.0340309271626877,0.0445381189192436,0.0807807485549046,0.0436931766011496,0.0235864845423433,0.107541295666799,0.10065841735926,0.025956828637772
0.0322527559714181,0.0454073068070072,0.0778615644602517,0.0435774820405876,0.0241412230269986,0.106664305463828,0.100298691031501,0.0266098150234276
0.0305287485616861,0.0461671418554265,0.0747877076531417,0.0433155241780831,0.0248235518097313,0.105634069655211,0.0997452279352635,0.0272374476959002
0.0288777341523086,0.0468046719927216,0.0715881785528512,0.0429100855128129,0.025631852085245,0.104471627250589,0.0990023360311705,0.0278337956282361
0.0273178973241537,0.0473083285545596,0.0682930307404214,0.0423655560878967,0.0265636067129544,0.10319891821463,0.0980758447363324,0.0283932076899596
0.0258665448424826,0.0476681819712432,0.0649329735100653,0.0416878986876788,0.0276153289702392,0.101838272314198,0.0969730894912472,0.028910407412765
0.024539890646265,0.047876165312569,0.0615389795407648,0.0408845895356141,0.028782498752501,0.100411897832341,0.0957028769963981,0.0293805828275918
0.0233528597605162,0.0479262583406217,0.0581419020941746,0.0399645332270654,0.0300595078788468,0.0989413895850119,0.094275426165563,0.0297994681734902
0.0223189118078632,0.0478146273700345,0.0547721052425666,0.0389379514705923,0.0314396166510946,0.0974472719661457,0.0927022805556966,0.0301634152122651
0.0214498842310199,0.0475397189463682,0.051459111143234,0.0378162471611316,0.0329149246245991,0.095948589331237,0.0909961912062222,0.0304694527231067
0.0207558545293603,0.0471023068733905,0.0482312695188198,0.0366118472197942,0.0344763591033496,0.0944625540537131,0.0891709728143579,0.0307153329260256
0.0202450205283521,0.0465054918097226,0.0451154554308397,0.0353380283902363,0.0361136846742823,0.0930042609857129,0.0872413393921794,0.030899562936062
0.0199235982214744,0.0457546517678515,0.0421368014954076,0.0340087295436842,0.0378155360485616,0.09158647460692,0.0852227267969758,0.0310214188114651
0.0197957377352945,0.0448573425001637,0.0393184696185905,0.0326383533068957,0.0395694752108286,0.0902194914106409,0.0831311081947421,0.0310809403439188
0.0198634589962021,0.0438231492710389,0.0366814653017059,0.0312415601246937,0.0413620730816804,0.0889110755718085,0.0809828052278078,0.0310789063394193
0.0201266092842733,0.0426634947789062,0.034244495157984,0.0298330587857218,0.0431790155924454,0.0876664618566587,0.078794294730871,0.0310167919619542
0.0205828447736552,0.0413914106284431,0.0320238660731028,0.0284273979949567,0.0450052339668908,0.0864884172640526,0.0765820101209971,0.0308967108450126
0.0212276375444519,0.040021280698353,0.0300334226568114,0.027038763159697,0.046825058850361,0.0853773524931136,0.0743621380395442,0.0307213445778219
0.0220543090497042,0.0385685639579967,0.0282845184126559,0.0256807815793762,0.0486223975665786,0.0843314753237723,0.0721504134560053,0.0304938614387374
0.0230540909932663,0.0370495032182452,0.0267860156007597,0.024366338700477,0.0503809331181239,0.083346978709523,0.069961918890627,0.030217826149386
0.0242162148573413,0.0354808262121722,0.0255443091604761,0.0231074082060718,0.052084342452372,0.0824182552031736,0.0678108942908525,0.0298971032253296
0.0255280316086233,0.0338794460339417,0.0245633710885917,0.0219148989391192,0.0537165298053108,0.0815381271133141,0.0657105627094737,0.0295357575769716
0.0269751631440397,0.0322621685747156,0.0238448128629969,0.0207985214885108,0.0552618687227732,0.0806980817743554,0.0636729744686105,0.0291379566537475
0.0285416866307242,0.0306454146803814,0.0233879642945547,0.0197666765429587,0.0567054445463832,0.079888504711663,0.0617088711537931,0.0287078781645221
0.0302103519817827,0.0290449641706184,0.0231899671656042,0.0188263663307674,0.0580332886806452,0.0790989087105243,0.0598275710268223,0.0282496263598232
0.0319628314018121,0.0274757277309134,0.0232458813377948,0.0179831301709591,0.0592325970040301,0.0783181613708818,0.0580368782983261,0.0277671587796093
0.0337799985274167,0.0259515512590437,0.0235488005615647,0.017241005278943,0.0602919268831791,0.0775347154877207,0.0563430190617143,0.0272642247532751
0.0356422333591347,0.0244850557081381,0.024089975573752,0.0166025140844404,0.0612013694456019,0.0767368451782574,0.0547506057755657,0.0267443166665642
0.0375297479234743,0.0230875138954168,0.0248589430574824,0.0160686790882361,0.0619526948513698,0.075912888527365,0.0532626300850603,0.0262106348332418
0.0394229264101065,0.0217687642071119,0.0258436601505209,0.0156390656232358,0.0625394675034301,0.0750514966780954,0.0518804819614467,0.0256660665491131
0.0413026724715938,0.0205371598198133,0.0270306448107464,0.0153118520051069,0.062957126553276,0.0741418890355795,0.0506039928060207,0.0251131794172838
0.0431507555866477,0.0193995511219059,0.0284051220978925,0.0150839256731116,0.0632030270188471,0.0731741133044251,0.0494315009149814,0.0245542281805901
0.044950148002564,0.01836129842094,0.029951175770158,0.0149510030312739,0.0632764390066128,0.0721393071357091,0.0483599383097826,0.0239911731934045
0.0466853438053869,0.0174263116462211,0.0316519042931984,0.0149077698049642,0.0631785059909224,0.0710299558925466,0.0473849373349186,0.0234257078836882
0.0483426519087204,0.0165971134971078,0.0334895802329218,0.0149480378648871,0.0629121664546329,0.0698401394712792,0.0465009540801329,0.0228592925103167
0.049910454706423,0.0158749223064701,0.0354458114159689,0.0150649137158497,0.062482045035521,0.068565760820395,0.0457014054309826,0.0222931920626006
0.0513794232280296,0.0152597507994783,0.0375017014470858,0.0152509734080365,0.0618943188442262,0.0672047494359227,0.0449788179152584,0.0217285168079641
0.0527426783005208,0.0147505169260958,0.0396380071082527,0.0154984386571162,0.0611565629168004,0.0657572334599954,0.0443249884333681,0.0211662642239734
0.053995887288495,0.0143451629217396,0.0418352908236186,0.0157993494331493,0.0602775782608312,0.0642256728795876,0.0437311581220781,0.0206073606173658
0.0551372885872619,0.0140407785032457,0.0440740667770575,0.0161457289922712,0.0592672073187625,0.0626149446263129,0.0431882002128421,0.0200527002124822
0.056167640623753,0.0138337236861963,0.0463349387101929,0.0165297379231364,0.058136143801306,0.0609323707809395,0.0426868210944207,0.0195031796515609
0.0570900969414854,0.0137197466627612,0.0485987268928868,0.0169438138981449,0.056895745375815,0.0591876843826175,0.0422177720049686,0.0189597266835348
0.0579100118277035,0.0136940928762538,0.0508465826989183,0.0173807935586614,0.055557857720102,0.0573929321633608,0.0417720673808813,0.0184233228509212
0.0586346812187104,0.0137516026788103,0.053060091342074,0.0178340130885788,0.0541346567794215,0.0555623178353137,0.0413412046866798,0.0178950207089402
0.0592730240092279,0.0138867962945517,0.0552213651471653,0.0182973850164152,0.052638513276372,0.0537119915538085,0.0409173794872128,0.0173759561803927
0.0598352118487529,0.0140939457256888,0.0573131298973811,0.0187654503989353,0.0510818806286459,0.051859790629493,0.0404936888332493,0.0168673561373225
0.0603322600350864,0.0143671334436074,0.0593188056436189,0.019233407225595,0.049477205029249,0.0500249358413954,0.0400643160213146,0.016370540819552
0.0607755959091848,0.0147002975667771,0.0612225828927439,0.0196971170400786,0.0478368547352094,0.0482276888854359,0.0396246905983891,0.0158869207030706
0.0611766225384518,0.0150872635164578,0.06300949601297,0.0201530920197296,0.0461730647772961,0.046488979040724,0.0391716188948428,0.0154179878331152
0.0615462942582279,0.0155217630520953,0.0646654968083759,0.0205984644271062,0.0444978934087116,0.0448300095753775,0.0387033817487734,0.0149653021832416
0.0618947184140362,0.0159974427518254,0.0661775310087745,0.0210309403673845,0.0428231873739578,0.0432718556473033,0.0382197965673576,0.014530474062936
0.0622307959633506,0.0165078649265953,0.0675336187149527,0.0214487404740456,0.0411605538298269,0.0418350650846865,0.0377222401945113,0.0141151437950094
0.0625619124038042,0.0170465042499524,0.068722938447353,0.0218505311590672,0.0395213366470623,0.0405392717124861,0.0372136285765321,0.013720959706869
0.0628936891798772,0.017606743079899,0.0697359144100481,0.0222353509503257,0.0379165936961826,0.0394028285031392,0.0366983504124064,0.0133495549600749
0.0632298039080172,0.0181818681287417,0.0705643067646155,0.0226025368512685,0.036357070899003,0.0384424654445096,0.0361821547220124,0.0130025232016254
0.0635718853892541,0.0187650711822285,0.0712013035878994,0.022951655417208,0.0348531695048191,0.0376729750057614,0.0356719955683551,0.0126813928066107
0.0639194866405296,0.0193494567854673,0.0716416111331857,0.0232824423973892,0.0334149049035924,0.037106926741871,0.0351758399336525,0.0123875996455748
0.0642701363831223,0.0199280598581133,0.0718815382146903,0.0235947536459858,0.0320518573164582,0.0367544121975605,0.034702446107016,0.0121224587229751
0.0646194668164588,0.0204938758534529,0.0719190716237416,0.0238885288204484,0.0307731159517433,0.0366228218637907,0.0342611196666792,0.0118871355017459
0.0649614130594364,0.0210399053055419,0.0717539410798703,0.0241637681444441,0.0295872181505115,0.0367166570495777,0.0338614532747596,0.0116826180241247
0.0652884770050174,0.0215592135513465,0.0713876725482955,0.0244205211919786,0.0285020841247429,0.0370373803073778,0.0335130564369512,0.0115096908711377
0.0655920453635756,0.0220450052765036,0.07082362710637,0.0246588854135322,0.027524947396931,0.0375833077581958,0.0332252822069325,0.0113689116588831
0.0658627493037848,0.022490712468477,0.070067020667094,0.0248790112676062,0.0266622815402348,0.0383495457876998,0.0330069588458224,0.0112605905648402
0.0660908523759021,0.0228900933773525,0.0691249200265721,0.0250811105994525,0.0259197249125375,0.0393279744741845,0.0328661350423047,0.0111847735070733
0.0662666541778183,0.023237339061997,0.0680062128831215,0.0252654653767391,0.0253020062105529,0.0405072808940139,0.0328098471137516,0.0111412298737927
0.0663808984222309,0.0235271830992679,0.0667215523017426,0.0254324348090201,0.02481287437925,0.0418730461396329,0.0328439156106937,0.0111294458354497
0.0664251742346718,0.0237550094837369,0.0652832780466168,0.0255824597417966,0.0244550363998717,0.043407889556027,0.0329727771493615,0.0111486240843849
0.0663922980471269,0.0239169539387299,0.0637053171496452,0.0257160634460993,0.0242301057285291,0.0450916722475216,0.0331993554877577,0.0111976904386027
0.0662766621768022,0.0240099946481567,0.0620030641356634,0.0258338474238729,0.0241385631560713,0.0469017600461004,0.0335249741962024,0.0112753073999954
0.0660745373110369,0.0240320293045442,0.0601932394773755,0.0259364805195755,0.0241797312159797,0.0488133441938114,0.0339493119023804,0.0113798945012164
0.0657843194800749,0.0239819357158047,0.0582937247962046,0.0260246802817012,0.0243517630371744,0.0507998158259574,0.034470400011445,0.0115096549278735
0.0654067159951089,0.023859612846578,0.056323374855399,0.026099186956838,0.0246516464582337,0.052833188223084,0.0350846618408929,0.0116626074836569
0.0649448672968179,0.0236659989872841,0.0543018085473317,0.0261607320401635,0.0250752240533143,0.0548845588113438,0.0357869909329223,0.0118366227120177
0.0644044015297741,0.0234030646353964,0.0522491829346741,0.0262100042473738,0.0256172293766614,0.0569246007063589,0.0365708648647182,0.0120294618975184
0.0637934172752367,0.0230737794622168,0.0501859552704045,0.0262476156974723,0.0262713392748455,0.0589240716956748,0.0374284897955419,0.0122388174900803
0.0631223902274447,0.0226820546565333,0.0481326373766492,0.0262740703652389,0.0270302416845193,0.0608543279681764,0.0383509706972091,0.0124623531737534
0.0624040026279201,0.0222326631405349,0.0461095449683855,0.0262897364360374,0.0278857180160677,0.0626878307166191,0.0393285023448842,0.0126977417127643
0.0616528988773157,0.0217311402436574,0.0441365427725297,0.0262948243695826,0.0288287389376002,0.0643986349934139,0.0403505759355172,0.0129426990770608
0.0608853751649242,0.0211836671324253,0.0422327860142149,0.02628937278916,0.0298495718430663,0.0659628504409868,0.041406195210194,0.0131950139328142
0.06011901336671,0.0205969396962675,0.0404164601542843,0.0262732441881514,0.0309378973702519,0.0673590622836835,0.0424840949766293,0.0134525719365365
0.0593722691650836,0.019978026643055,0.0387045229541007,0.0262461316620372,0.0320829316256372,0.0685687003508013,0.043572955171186,0.0137133741838434
0.0586640233853356,0.0193342215855728,0.0371124549809617,0.0262075768991013,0.0332735510569264,0.0695763459439552,0.0446616051439357,0.013975549084412
0.0580131064736537,0.0186728943348374,0.0356540255441563,0.0261569990235529,0.0344984181501509,0.0703699703861004,0.0457392149038765,0.014237357383452
0.0574378086943734,0.0180013462724729,0.0343410804353817,0.0260937333985854,0.0357461075758415,0.0709411027746029,0.0467954715540219,0.0144971908960678
0.0569553914060259,0.0173266738799051,0.0331833567690704,0.0260170787245797,0.037005233103502,0.071284925603851,0.0478207391884424,0.0147535662894525
0.0565816162644116,0.0166556437791224,0.0321883298335625,0.0259263498276863,0.0382645751005303,0.0714002960924169,0.0488061993955951,0.0150051155155807
0.0563303086801685,0.0159945820961802,0.0313610969182531,0.0258209331109682,0.0395132076092121,0.0712896917214905,0.0497439689261003,0.0152505742295454
0.0562129697339614,0.0153492804333149,0.0307043027636643,0.0257003419296259,0.0407406239315269,0.0709590818814275,0.0506271920182827,0.0154887692386146
0.0562384484208326,0.0147249201250793,0.0302181101836526,0.0255642696533744,0.041936860147675,0.0704177315845498,0.051450106854187,0.0157186060907197
0.0564126842767817,0.014126015761434,0.0299002177455877,0.0254126382099795,0.0430926161929512,0.0696779453271498,0.0522080877009218,0.0159390581764179
0.0567385287213484,0.0135563782541622,0.0297459246653791,0.0252456393426152,0.044199373353258,0.068754758481525,0.0528976655499994,0.0161491588963261
0.05721565127472,0.0130190970806265,0.0297482417285128,0.0250637655791647,0.0452495056376252,0.0676655824746389,0.0535165298138103,0.0163479983590756
0.0578405340178438,0.012516540800055,0.0298980463026374,0.0248678286981903,0.0462363816660517,0.0664298109621488,0.0540635120511663,0.0165347257011425
0.0586065546940668,0.0120503744693635,0.03018427909111,0.0246589648989768,0.0471544539520262,0.0650683965588948,0.0545385513128026,0.0167085575528973
0.0595041561524206,0.0116215920894823,0.0305941796279627,0.024438627078634,0.0479993331867904,0.0636034093442006,0.0549426407639584,0.0168687925336762
0.0605210972886804,0.011230561642178,0.0311135564099941,0.0242085648813429,0.0487678453867292,0.0620575878582265,0.0552777565448367,0.0170148309891719
0.0616427778785527,0.0108770798247429,0.0317270865164337,0.0239707927781787,0.0494580688770696,0.0604538914179865,0.0555467714720681,0.0171461984390296
0.062852626669696,0.0105604335066736,0.0324186388865959,0.0237275465178029,0.0500693468582345,0.0588150616393267,0.055753357113708,0.0172625704457087
0.0641325394686964,0.0102794652344729,0.0331716146605446,0.0234812292386699,0.0506022714880663,0.0571632016264828,0.0559018771710241,0.0173637961851607
0.0654633524367993,0.0100326406161829,0.0339692968594972,0.0232343497298333,0.0510586374282371,0.0555193822014226,0.0559972734209127,0.0174499181524445
0.0668253355800722,0.00981811583550514,0.0347952007775122,0.0229894559946506,0.051441365668753,0.0539032844655704,0.056044944587681,0.0175211861127311
0.0681986922770841,0.00963380361984888,0.0356334161733707,0.0227490670377768,0.0517544006715422,0.0523328863981069,0.056050619317669,0.0175780643097342
0.0695640520978325,0.00947743586318852,0.0364689321181496,0.0225156051857279,0.0520025842377134,0.0508241991671884,0.0560202261459906,0.017621231638448
0.0709029452917211,0.00934662132078728,0.037287934610825,0.0222913310972484,0.0521915085156534,0.0493910576279801,0.0559597646618273,0.0176515745987853
0.072198247154486,0.00923889752178943,0.0380780666807088,0.022078283910402,0.0523273504853327,0.0480449687224007,0.0558751819109575,0.0176701724686606
0.0734345786845976,0.00915177696882081,0.0388286419716606,0.0218782291416607,0.0524166919377268,0.0467950201446826,0.0557722563916778,0.0176782739980343
0.0745986483020498,0.00908278837422796,0.039530805583725,0.021692616554691,0.0524663313227298,0.045647849541782,0.0556564903587432,0.0176772654787303
0.0756795203569632,0.00902951384916754,0.0401776388211659,0.0215225494386062,0.0524830953639608,0.0446076724928044,0.0555330108783831,0.0176686310883208
0.0766688001461452,0.00898962274338753,0.0407642058840689,0.0213687661567929,0.0524736580542878,0.0436763656944674,0.0554064810070926,0.017653907503163
0.0775607310554319,0.00896090257344838,0.0412875405973618,0.0212316344795614,0.0524443730731101,0.0428535998862639,0.0552810237950214,0.0176346354888765
0.0783522054149945,0.00894128720980211,0.0417465724012636,0.0211111586882551,0.0524011245395444,0.0421370158336979,0.0551601626719747,0.0176123112144005
0.0790426946565333,0.0089288821149505,0.0421419941469772,0.0210069986419649,0.0523492008238877,0.0415224367533993,0.0550467814250481,0.0175883395385513
0.0796341049964151,0.00892198600321423,0.042476078418901,0.0209184994065585,0.0522931958952747,0.0410041111885244,0.0549431052378705,0.0175639910890836
0.0801305631961891,0.00891910789004889,0.0427524521552936,0.0208447299347343,0.0522369414298483,0.0405749802851396,0.0548507021591456,0.017540364903419
0.0805381364347408,0.00891897823732253,0.0429758400827166,0.0207845293678529,0.0521834709628685,0.0402269624083583,0.0547705032591253,0.0175183585346699
0.080864492650965,0.00892055301734105,0.0431517869075117,0.0207365593427978,0.0521350160328293,0.0399512473971103,0.0547028398189479,0.0174986475702427
0.0811185120441933,0.0089230100570308,0.0432863684095981,0.020699360087938,0.0520930337673665,0.0397385932869737,0.0546474966408748,0.0174816762940616
0.0813098652841494,0.00892573778416361,0.0433859027809194,0.0206714076375437,0.0520582648033483,0.0395796193654885,0.0546037812852733,0.0174676606997264
0.0814485779011808,0.00892831714674653,0.0434566745966438,0.0206511697076238,0.052030818983098,0.0394650900421351,0.0545706090481286,0.0174566042702684
0.0815446019547118,0.00893049772317411,0.0435046837460024,0.0206371584540268,0.0520102842275422,0.0393861836777006,0.0545466022737449,0.0174483259745731
0.0816074148295496,0.00893216899300207,0.0435354302707833,0.0206279788819514,0.0519958525468292,0.0393347391692225,0.0545302004184599,0.01744249892409
0.0816456625265207,0.00893332790966862,0.0435537440194395,0.0206223715929592,0.0519864565780062,0.0393034712773668,0.0545197753577928,0.0174386971834568
0.0816668638326663,0.00893404449023872,0.04356366605966,0.020619247996421,0.0519809096118193,0.0392861442145138,0.054513745366944,0.017436447361152
0.0816771926967412,0.00893442783830391,0.0435683869150555,0.0206177157793849,0.0519780409793264,0.0392776921132442,0.0545106805382389,0.017435280817011
0.0816813575406859,0.0089345954912383,0.0435702446666729,0.0206170924840925,0.0519768166081318,0.0392742743909612,0.05450939149174,0.0174347815890688
0.0816825965066758,0.00893464903224172,0.0435707837112144,0.0206169050762022,0.0519764321233337,0.0392732533084658,0.0545089916893731,0.0174346244120413
