APL,FCR,FDS,FDP,ED,EI,ECU,ECR
0.00996944463164374,0.0316017526102178,0.0189254998563227,0.0899451426247031,0.00513354975932028,0.0761951659380767,0.0211788998037346,0.00758118947549682
0.0129816722585649,0.0373422367590695,0.0358488278325088,0.0908097883578127,0.0086788406669586,0.0979055830734736,0.0287735317024396,0.0118394846714874
0.0158666577145014,0.0428674716901409,0.0518948316460601,0.0915739254624455,0.0120449199566841,0.118472138861819,0.0361034185819576,0.0159300139786732
0.0186001647524493,0.0481305489741695,0.0669360766987331,0.0922234874246001,0.0152054127321666,0.137745083490207,0.0431130802088046,0.0198203452809844
0.0211598033293444,0.0530879196717492,0.0808595036643951,0.092745294387043,0.0181368244467428,0.155594471035882,0.0497514877453223,0.0234806328458874
0.0235253951558053,0.0577002174532483,0.0935684408647881,0.0931273002197732,0.0208189283992153,0.171912350207071,0.0559729173457868,0.0268840948268704
0.0256792850688444,0.0619330030914668,0.10498420401032,0.0933588178858039,0.0232350646286355,0.186614323629654,0.0617376676913333,0.030007411465556
0.0276065925663936,0.0657574131191613,0.115047253400672,0.093430713993573,0.0253723452330331,0.199640445571095,0.0670126269520846,0.0328310375844654
0.0292954017897815,0.0691507012379684,0.123717904979663,0.093335567552016,0.0272217670688586,0.210955471845543,0.0717716843732472,0.0353394284995731
0.0307368908198535,0.0720966653543909,0.130976608143825,0.0930677923472214,0.0287782364002146,0.220548504182325,0.0759959879410706,0.0375211816359038
0.0319254019156618,0.0745859544460974,0.136823808581331,0.0926237253520952,0.0300405111744366,0.228432081101134,0.0796740512913679,0.0393690967879994
0.0328584539422856,0.0766162484332873,0.141279415245442,0.0920016838404851,0.0310110668867398,0.234640768091907,0.0828017124911354,0.0408801579840469
0.0335366982497899,0.0781923040959379,0.144381895226954,0.0912019913526241,0.0316958931888176,0.239229305931207,0.0853819485817796,0.0420554410586638
0.0339638203432829,0.079325862885193,0.146187029603355,0.0902269697789813,0.0321042303851313,0.242270389106697,0.0874245537997655,0.0428999531632543
0.0341463914376287,0.0800354215193671,0.146766373820342,0.0890808943122712,0.0322482568619584,0.24385216037895,0.088945694665795,0.0434224125846743
0.0340936757747661,0.0803458717266574,0.146205474463614,0.087769910126742,0.0321427396041093,0.244075516724556,0.0899673596868025,0.0436349785171567
0.03381740076297,0.0802880193629211,0.144601898234777,0.0863019132009875,0.0318046599341071,0.243051323117487,0.0905167234754911,0.0435529402758607
0.033331497083767,0.0798979938473311,0.142063127708117,0.0846864011175945,0.0312528255622107,0.240897623745725,0.0906254439033225,0.0431943740991878
0.0326518149852425,0.0792165572984534,0.138704373114815,0.082934301322389,0.0305074786060377,0.237736928969799,0.0903289084210918,0.0425797744659568
0.0317958220811715,0.0782883225376162,0.134646343493968,0.0810577832043151,0.0295899080656197,0.233693645274312,0.0896654450613229,0.0417316666307048
0.0307822879460433,0.0771608920094735,0.130013016779715,0.0790700576720093,0.0285220743558556,0.228891705353949,0.0886755152068019,0.0406742075176709
0.0296309614059405,0.0758839341932805,0.124929446601284,0.0769851666027021,0.0273262526428236,0.223452444553536,0.0874009070414818,0.039432782391708
0.0283622469996427,0.0745082178344465,0.119519642576517,0.0748177655684439,0.0260247006618447,0.217492757362408,0.0858839485854624,0.0380336041192362
0.0269968870223393,0.0730846253978455,0.113904559551604,0.0725829053127688,0.0246393553254652,0.211123554810311,0.0841667567238436,0.0365033204066625
0.0255556546855671,0.0716631654490516,0.108200228695027,0.0702958188053279,0.0231915609976173,0.204448531373551,0.0822905356621518,0.0348686332581602
0.0240590628006502,0.0702920016880699,0.102516059081917,0.0679717200446351,0.0217018311566473,0.19756323797509,0.080294936649831,0.0331559346853481
0.0225270917137288,0.0690165160951964,0.0969533326979649,0.0656256183800334,0.020189644303917,0.190554447079094,0.0782174899323516,0.0313909629914182
0.0209789399587635,0.0678784245770638,0.0916039100839455,0.063272150140259,0.0186732741777796,0.183499788954526,0.0760931181999264,0.0295984839832503
0.0194328008434676,0.0669149642533142,0.0865491592576587,0.0609254290210788,0.0171696534003275,0.176467635149262,0.073953737691664,0.0278020007274683
0.0179056676054252,0.0661581710198283,0.0818591168832692,0.0585989171512776,0.0156942686949421,0.169517204507327,0.0718279497555321,0.0260234942519398
0.016413168855424,0.0656342638608873,0.0775918872802493,0.0563053185836795,0.0142610851542518,0.162698866318392,0.0697408234415454,0.0242831967843991
0.0149694351515793,0.0653631492578138,0.0737932813392495,0.0540564953671418,0.012882496894131,0.156054612046942,0.0677137684134817,0.0225993989533258
0.0135869969906449,0.0653580561766603,0.0704966935786712,0.0518634043846377,0.0115693016321741,0.149618661000351,0.0657644960854084,0.0209882924310113
0.0122767141210303,0.0656253097246771,0.0677232114961936,0.049736052499554,0.0103306969633645,0.143418160036014,0.0639070645804331,0.0194638493210336
0.0110477356355043,0.0661642490767246,0.0654819472234333,0.0476834682541358,0.00917429607210756,0.137473937444638,0.062152000176824,0.0180377389466487
0.0099074896888917,0.0669672922234341,0.0637705774859048,0.0457136892479243,0.00810616030376736,0.131801276771393,0.0605064858476216,0.0167192817317422
0.00886170106183578,0.0680201465168137,0.0625760741508302,0.0438337642191172,0.00713084584318116,0.126410684900651,0.0589746070183858,0.0155154390572537
0.00791443436457763,0.069302160292662,0.0618756041906154,0.0420497675164316,0.00625146201153376,0.121308636412825,0.057557645180356,0.0144308375603022
0.00706816043693645,0.0707868071412293,0.0616375744930495,0.0403668224314443,0.00546973924984381,0.116498279383587,0.0562544104597863,0.0134678261974621
0.00632384332765653,0.0724422907574184,0.0618227936966297,0.0387891300054214,0.0047861054154374,0.111980086316309,0.0550616036395234,0.0126265643064356
0.00568104501102193,0.0742322553198473,0.0623857209994431,0.0373200011628995,0.00419976934206061,0.107752433646335,0.0539741963661579,0.0119051386777589
0.00513804469991865,0.0761165844967828,0.063275771475454,0.035961891449691,0.0037088106321101,0.103812098744432,0.0529858170574693,0.0112997071859703
0.00469196940197343,0.078052271374477,0.0644386487494617,0.0347164384024311,0.00331027455006542,0.100154672740272,0.0520891308734229,0.0108046659716233
0.0043389323915725,0.079994341266482,0.0658176780017843,0.0335845011457756,0.00300027091830076,0.0967748963886071,0.0512762046686441,0.0104128368145913
0.00407417649229657,0.0818968085008864,0.0673551136728703,0.0325662006320308,0.00277407607896162,0.0936669307781573,0.050538850687795,0.0101156712749389
0.00389221931653971,0.0837136460779772,0.0689933957603754,0.0316609582703179,0.00262623715011879,0.0908245741176042,0.0498689443105675,0.00990346827352593
0.00378699772235033,0.085399744529653,0.0706763276284164,0.0308675311044333,0.00255067788654751,0.0882414339011505,0.0492587107033036,0.0097656018911745
0.00375200874426873,0.0869118358575762,0.0723501499491261,0.0301840428115678,0.00254080544859299,0.0859110636652214,0.0487009743003314,0.00969075617443344
0.00378044440247459,0.0882093610032005,0.0739644906898991,0.0296080109950994,0.00258961733219282,0.0838270738924731,0.0481893656846318,0.00966716358065089
0.00386531822928642,0.0892552638952783,0.0754731783354293,0.0291363719637593,0.00268980766552597,0.0819832250560904,0.0477184827140007,0.00968284335937375
0.00399958195118815,0.0900166997378049,0.0768349120650819,0.0287655040239832,0.00283387203706351,0.0803735071045175,0.0472840055586895,0.00972583580720535
0.00417623131299689,0.0904656475761939,0.0780137857648646,0.0284912494060118,0.00301420995548652,0.0789922053055623,0.0468827675739524,0.00978442824870469
0.00438840033846819,0.0905794163131422,0.0789796626885746,0.0283089342507743,0.00322322397717019,0.0778339485163201,0.0465127847577078,0.00984736893460969
0.00462944339590642,0.0903410319439509,0.0797083985700557,0.0282133863199051,0.00345341456420871,0.076893734088646,0.0461732457365754,0.00990406573081603
0.00489300457416892,0.0897394957204862,0.0801819157997249,0.0281989510853846,0.00369746987574325,0.0761669244329305,0.0458644631450655,0.00994476724843601
0.00517307427929439,0.0887699085880567,0.0803881384280159,0.0282595080402159,0.00394834986107964,0.0756492124862476,0.0455877876953895,0.00996072459486065
0.00546403354033055,0.0874334643889422,0.0803208043563769,0.0283884898464293,0.004199364095061,0.0753365546998677,0.0453454882608348,0.00994433200774323
0.0057606870515431,0.0857373201705205,0.0799791746940062,0.028578906873364,0.00444424275825639,0.0752250692940402,0.0451406037221108,0.00988924460230849
0.00605828628142637,0.0836943541273064,0.0793676599823863,0.0288233787750969,0.00467720017740338,0.0753108964121574,0.0449767736865798,0.00979047186529117
0.00635254398187354,0.0813228204336087,0.0784953806435767,0.0291141736225534,0.0048929905124435,0.0755900186487051,0.0448580547815182,0.00964444639722509
0.00663964130194791,0.0786459092893641,0.0773756775331649,0.0294432543511777,0.00508695543821172,0.0760580452376903,0.0447887282456158,0.00944906838958247
0.00691622864976263,0.0756912225014161,0.0760255883440034,0.0298023319723947,0.00525506389078217,0.0767099685946659,0.0447731045136623,0.00920372703115377
0.00717942143805413,0.0724901787349843,0.0744653056220127,0.0301829250074423,0.00539394401593521,0.0775399051759544,0.0448153309865737,0.0089093002303711
0.00742679179964815,0.0690773660225674,0.0727176313891233,0.0305764248485116,0.00550090735417651,0.0785408324876677,0.0449192089267436,0.00856813388492963
0.00765635723048802,0.0654898605883464,0.0708074416301855,0.0309741671286517,0.00557396518334245,0.0797043327878108,0.0450880241368992,0.00818400190134022
0.00786656693845663,0.0617665299389531,0.0687611716177104,0.0313675095059223,0.00561183697687107,0.0810203546822822,0.045324394970977,0.0077620484162124
0.00805628649969511,0.0579473353978583,0.0666063308587323,0.03174791627381,0.00561395111661002,0.0824770061488835,0.0456301408803067,0.00730871399652682
0.00822478127835944,0.054072646776764,0.0643710547219327,0.0321070496195782,0.00558043823361132,0.0840603944414944,0.0460061742651435,0.00683164777247877
0.00837169891837754,0.0501825805025548,0.0620836983772495,0.0324368661840622,0.00551211774064096,0.0857545281637167,0.046452417155947,0.00633960736862429
0.00849705098697873,0.0463163717725344,0.0597724769436772,0.0327297165005725,0.00541047818609999,0.0875412941627701,0.0469677429871526,0.00584234820086165
0.00860119353326008,0.0425117905971957,0.0574651531837861,0.0329784445480995,0.0052776519598017,0.0894005178849972,0.0475499436254521,0.00535050336738998
0.00868480610184342,0.0388046105570539,0.0551887712291236,0.033176485030252,0.00511638467002253,0.0913101116173702,0.0481957226212222,0.00487545504701331
0.0087488687624674,0.0352281376281766,0.0529694328333816,0.0333179567525819,0.00492999934252668,0.093246310590439,0.0489007162482093,0.00442919803388478
0.0087946369256053,0.0318128045388204,0.0508321117834538,0.0333977512580541,0.00472235555718856,0.09518399251634,0.0496595433134295,0.00402419587745971
0.00882361393051498,0.0285858339545112,0.0488005019093052,0.0334116164107671,0.00449780371448484,0.0970970723940685,0.0504658831171452,0.00367323009367252
0.00883752141304922,0.0255709717264362,0.0468968942262893,0.0333562347077817,0.00426113475296448,0.0989589608784549,0.0513125796673071,0.00338924297241309
0.00883826725624866,0.022788289846932,0.0451420789509808,0.0332292956149489,0.00401752575873236,0.100743070457268,0.0521917699550964,0.00318517450081108
0.00882791079201318,0.0202540576675157,0.0435552684134821,0.0330295601044394,0.00377248197271212,0.102423350218253,0.0530950343448409,0.00307379384302971
0.00880862510047319,0.0179806791759249,0.0421540371549484,0.0327569142201051,0.00353177568603436,0.103974829155224,0.0540135673525935,0.00306752582925954
0.00878265665345673,0.0159766934803942,0.040954275502342,0.0324124078037051,0.00330138241211238,0.105374150062646,0.0549383668832126,0.003178273118432
0.0087522829177414,0.0142468349156789,0.0399701522920416,0.0319982749604771,0.00308741455884635,0.106600079711585,0.055860439051826,0.00341723507405984
0.00871976863408901,0.012792148300276,0.0392140810043224,0.0315179342496793,0.00289605267626845,0.107633984016566,0.0567710138444507,0.00379472485307729
0.00868732131683525,0.011610154048458,0.0386966821170834,0.0309759684123459,0.00273347430945037,0.108460257199868,0.0576617646938796,0.00431998668125293
0.00865704641929043,0.0106950573525069,0.0384267342846149,0.0303780849988638,0.0026057805676,0.109066691399336,0.0585250239305011,0.00500101570913796
0.00863090281048237,0.0100379954922458,0.0384111085017403,0.0297310599090203,0.002518920703845,0.109444771327758,0.0593539866077426,0.00584438313900755
0.00861065957921048,0.00962731727097539,0.0386546824132495,0.0290426653614069,0.00247861522654901,0.109589880853352,0.0601428968948827,0.00685506941634632
0.00859785546945694,0.00944888838070118,0.0391602356151475,0.0283215827609791,0.00249027824664852,0.109501414445743,0.0608872129501312,0.00803630820822463
0.0085937622601465,0.00948641628090947,0.0399283301483087,0.0275773003210528,0.00255893983256023,0.109182793969653,0.0615837466144042,0.00938944383560148
0.00859935316173623,0.00972178833632062,0.040957182374246,0.0268199953677118,0.00268916912441919,0.10864139736713,0.0622307730267252,0.0109138049420315
0.00861527709181256,0.0101354174993486,0.0422425325411568,0.0260604017521271,0.00288499899005219,0.107888407835371,0.0628281042329616,0.0126065974506467
0.00864183965496286,0.0107065903041053,0.0437775176318074,0.0253096634976552,0.00314985313531736,0.106938590058862,0.0633771219749711,0.0144628201981046
0.00867899167759022,0.0114138120562541,0.0455525533682039,0.0245791765912052,0.0034864767344718,0.105809997672315,0.0638807677261948,0.0164752069439115
0.00872632608130657,0.012235144238184,0.0475552328844233,0.0238804215720303,0.00389687172170619,0.104523616662701,0.0643434910048586,0.018634198644249
0.00878308362949282,0.013148529765139,0.049770251693139,0.0232247900682128,0.00438223784489787,0.103102952289622,0.06477115828581,0.0209279498586897
0.00884816770347799,0.0141321025713182,0.0521793701339148,0.0226234083940186,0.0049429205151604,0.101573570498266,0.0651709238690415,0.0233423728315055
0.00892016792834825,0.0151644784991361,0.054761424749174,0.0220869606831181,0.00557836648560176,0.0999626073943912,0.0655510628091915,0.0258612220992815
0.00899739223695052,0.016225024450129,0.0574923987391352,0.0216255134258221,0.00628708844198526,0.0982982614353454,0.0659207667323777,0.0284662215329358
0.00907790674606459,0.0172941028370441,0.0603455592727972,0.0212483434260777,0.00706663962499877,0.0966092821474477,0.0662899058789104,0.0311372347536581
0.00915958251177454,0.0183532889918181,0.0632916667561242,0.0209637720417544,0.00791359957826758,0.0949244661962954,0.0666687634656794,0.0338524789159765
0.00924014787155808,0.0193855600308679,0.0662992583144117,0.0207790095945912,0.00882357199185121,0.0932721675941769,0.067067749810713,0.0365887808044518
0.00931724486867356,0.02037545418691,0.069335004686473,0.0207000144803352,0.00979119536297754,0.0916798262574215,0.0674971027662215,0.0393218729224735
0.00938848825671069,0.0213091994803767,0.0723641369160003,0.020731371434934,0.0108101668539043,0.0901735191946397,0.0679665792543222,0.0420267257508021
0.00945152565337183,0.0221748103307032,0.0753509369119431,0.0208761926649678,0.0118732794122045,0.0887775404268249,0.0684851425233846,0.0446779107575559
0.00950409733986647,0.0229621510944847,0.0782592837626867,0.0211360445251774,0.0129724720407373,0.0875140175970737,0.0690606514893743,0.0472499872990878
0.00954409396550476,0.0236629666209715,0.0810532449919796,0.0215109013672229,0.0140988930919714,0.0864025733738915,0.0696995608837697,0.0497179055110698
0.00956961033943604,0.0242708812213398,0.0836976985696627,0.021999127141416,0.0152429765798432,0.0854600374998319,0.0704066423391837,0.0520574167599034
0.0095789937890705,0.0247813682855877,0.0861589685294832,0.0225974844991238,0.0163945316598367,0.0847002125483446,0.0711847359144837,0.0542454830446868
0.00957088608917875,0.0251916927235608,0.08840545584554,0.0233011705478553,0.017542845487083,0.0841336955377497,0.0720345392618079,0.0562606764145892
0.00954425841843229,0.0255008279660763,0.090408247119727,0.0241038777934295,0.0186767994700698,0.0837677582019806,0.0729544397136324,0.0580835583433274
0.00949843892441186,0.0257093494945604,0.0921416860846167,0.0249978779592683,0.0197849984022447,0.0836062889601037,0.0739403942778796,0.059697027233749
0.00943313229035965,0.0258193079729437,0.0935838956713054,0.0259741256368659,0.0208559112217986,0.0836497979346261,0.0749858633968273,0.0610866214390069
0.0093484305855931,0.0258340864691639,0.0947172396801013,0.0270223786654164,0.0218780215480415,0.0838954836792538,0.0760818052538083,0.0622407666462965
0.00924481491874729,0.0257582472735203,0.0955287117706229,0.0281313328503918,0.0228399858047498,0.0843373591202571,0.0772167372392652,0.063150959891684
0.0091231479095076,0.0255973739342582,0.0960102375437948,0.0292887697579483,0.023730796602722,0.0849664350020851,0.0783768692099108,0.0638118865370558
0.00898465753473371,0.0253579133987343,0.0961588767806883,0.0304817173287892,0.0245399490178277,0.0857709603162181,0.0795463102202545,0.0642214693869625
0.00883091328335259,0.0250470223122709,0.0959769182677989,0.0316966234266865,0.0252576073913325,0.086736719110129,0.0807073481773843,0.064380849448501
0.00866379562661319,0.0246724209878582,0.0954718669021077,0.0329195418956323,0.0258747702467894,0.0878473808382141,0.0818408004327331,0.0642942971471722
0.00848545958129675,0.0242422579831323,0.0946563287004966,0.0341363295222246,0.0263834308186678,0.0890848977736306,0.0829264313850286,0.0639690543628301
0.00829829286834266,0.0237649872515439,0.0935478012464638,0.0353328512233816,0.0267767304328678,0.0904299398194708,0.0839434300561472,0.0634151119738167
0.00810486911121479,0.0232492585223188,0.092168375594886,0.0364951901809853,0.0270491013976593,0.091862355176402,0.0848709374512004,0.0626449326911528
0.00790789669553139,0.0227038202274482,0.0905443550949258,0.0376098594571921,0.0271963951061039,0.0933616445992767,0.0856886112779505,0.0616731324697941
0.00771016422089458,0.0221374333332296,0.0887057991879622,0.0386640117217168,0.0272159902597997,0.0949074372814211,0.0863772133553115,0.0605161343059956
0.00751448379665623,0.0215587942129401,0.0866860043681667,0.0396456440081655,0.0271068762382378,0.0964799576337343,0.0869192019928251,0.0591918066201083
0.0073236336455127,0.0209764651971001,0.084520937861235,0.0405437947850373,0.0268697078008669,0.098060473916645,0.0872993093837448,0.0577190971364577
0.00714030148278169,0.020398812227365,0.0822486406251934,0.0413487309251808,0.0265068291298121,0.0996317207416864,0.0875050845679796,0.0561176729536105
0.00696702992527301,0.0198339495131167,0.0799086145138738,0.0420521221497336,0.0260222670258638,0.101178286467999,0.0875273853358307,0.0544075773386491
0.00680616492904544,0.0192896908694348,0.0775412050230646,0.0426471998871609,0.0254216941143082,0.102686953692145,0.0873608054668026,0.0526089127445649
0.00665980815462256,0.0187735069185863,0.0751869883014172,0.0431288960884764,0.0247123628395064,0.104146979539854,0.0870040245909353,0.0507415573914135
0.00652977420553102,0.0182924873592166,0.0728861700768917,0.0434939561017822,0.0239030105915199,0.105550304571191,0.086460066365698,0.0488249198524418
0.00641755377257821,0.0178533081071687,0.0706780042993271,0.0437410193983524,0.0230037366966311,0.106891684007856,0.0857364499574292,0.0468777331518361
0.00632428373967467,0.0174622037896197,0.0686002397242463,0.0438706631243152,0.0220258533049028,0.108168740588345,0.0848452229382406,0.0449178875634509
0.00625072520421869,0.0171249463288217,0.0666886024382953,0.0438854057229696,0.0209817137835561,0.109381942439459,0.0838028699594676,0.0429622999007485
0.0061972501255509,0.0168468299807234,0.0649763207287524,0.0437896704214001,0.0198845234439389,0.110534510155606,0.082630098471524,0.0410268164536799
0.00616383699909854,0.0166326624978728,0.0634936959619604,0.0435897101864309,0.0187481379081323,0.111632254759279,0.0813515076308515,0.0391261463282177
0.0061500756635348,0.016486761450315,0.0622677209008822,0.0432934959958098,0.0175868540856191,0.11268334573489,0.0799951475957116,0.0372738211098035
0.00615518112077152,0.0164129541008371,0.0613217463174744,0.0429105693158557,0.0164151979271547,0.113698009397831,0.0785919751529113,0.0354821753074354
0.00617801604885073,0.016414578617312,0.0606751974734288,0.0424518593918772,0.0152477124529527,0.114688162397126,0.0771752123527291,0.0337623409048945
0.00621712145827924,0.0164944842282281,0.0603433430261639,0.0419294673863953,0.0140987492514569,0.115666990785174,0.0757796191698555,0.0321242495970413
0.00627075466491045,0.0166550283422886,0.0603371190544028,0.0413564219250762,0.0129822665694192,0.116648488825344,0.0744406972824158,0.0305766378612842
0.00633693351626297,0.0168980693478262,0.0606630095022185,0.0407464130266872,0.0119116370698185,0.11764697138686,0.073193847107503,0.0291270521724517
0.00641348570103575,0.0172249542635905,0.0613229821009113,0.0401135125708372,0.0108994681841515,0.118676570739735,0.0720735020841907,0.027781853494836
0.0064981019567529,0.0176365003161475,0.0623144774279432,0.0394718889657388,0.00995743766988844,0.119750727151079,0.0711122629179514,0.0265462209006646
0.00658839194785433,0.0181329693484811,0.0636304487766387,0.0388355225661118,0.00909614652055339,0.120881684418113,0.0703400529608779,0.0254241537119153
0.00668194142544019,0.0187140344846175,0.0652594514177691,0.0382179280370747,0.00832499084116722,0.122080004479669,0.0697833158917653,0.0244184710740992
0.00677636910944444,0.0193787397218727,0.0671857809646706,0.0376318901412581,0.00765205378931638,0.123354117077895,0.0694642772975515,0.023530808368728
0.00686938176436193,0.0201254546365131,0.0693896613318716,0.0370892193977159,0.00708401825530811,0.124709919290987,0.0694002910675591,0.0227616112070816
0.00695882619594913,0.0209518276683357,0.0718474826785067,0.0366005331058467,0.00662610061636416,0.126150435589427,0.0696032890992613,0.0221101292956957
0.00704273723849556,0.0218547421173122,0.0745320882672823,0.0361750657586849,0.0062820055925167,0.127675544586429,0.0700793494609435,0.0215744136341195
0.00711938103845668,0.0228302788656761,0.0774131065534405,0.0358205117428203,0.00605390189761798,0.129281776397874,0.0708283948742626,0.0211513208869115
0.00718729293151605,0.0238736891464423,0.0804573226240383,0.0355429023770162,0.00594241807039168,0.130962184426078,0.0718440300685563,0.0208365283088905
0.00724530906628093,0.0249793800199236,0.0836290826898622,0.0353465181877208,0.00594665770323071,0.132706296250644,0.0731135228773711,0.0206245618202741
0.00729259095661473,0.0261409149222869,0.0868907265978897,0.0352338358897679,0.00606423326515593,0.134500148897899,0.0746179302531309,0.020508839310899
0.00732864244241548,0.0273510315828076,0.0902030454242526,0.0352055086450189,0.0062913177551579,0.136326412917265,0.0763323671382428,0.0204817309318674
0.00735331896054818,0.0286016795401039,0.0935257630505436,0.035260378161266,0.00662271344076833,0.138164606461651,0.0782264133342725,0.0205346376397216
0.00736682937028744,0.0298840792669074,0.0968180412081256,0.0353955176442091,0.00705193689803908,0.1399913951099,0.0802646509852807,0.020658088403819
0.00736973067413308,0.0311888044771975,0.100039006059464,0.035606304858639,0.00757131948166075,0.141780967994769,0.0824073229256903,0.0208418554130017
0.00736291582274839,0.0325058885406006,0.103148290943241,0.0358865240348594,0.00817212223450985,0.143505478471693,0.0846110998140125,0.0210750855182923
0.0073475946534658,0.0338249550913987,0.106106585922237,0.0362284940909349,0.00884466407975419,0.145135538337393,0.0868299413928123,0.0213464451789106
0.00732526811529975,0.0351353719188828,0.108876182240301,0.0366232194841714,0.00957846187960057,0.146640757363486,0.0890160339340042,0.021644275637355
0.00729769624701678,0.0364264260728834,0.111421499404697,0.0370605596454489,0.0103623806035506,0.147990322988537,0.0911207821409698,0.0219567550665064
0.00726686073873482,0.0376875167775069,0.113709584110454,0.037529413321408,0.0111847915632613,0.149153616604253,0.0930958310272098,0.0222720648319099
0.00723492314291482,0.038908361138742,0.115710572911287,0.0380179149061876,0.0120337365477091,0.150100861419897,0.0948940928665211,0.0225785574401192
0.00720417978133111,0.0400792059153203,0.117398113234617,0.03851364060893,0.0128970957179649,0.15080379200226,0.0964707561236796,0.0228649238067123
0.00717701418746369,0.0411910374127192,0.118749738442161,0.0390038226880402,0.0137627572252719,0.151236329758105,0.0977842562455219,0.0231203569611635
0.0071558477870954,0.0422357813858803,0.119747190793323,0.0394755696141194,0.0146187866124471,0.151375245448718,0.0987971906059544,0.0233347085708294
0.0071430895714693,0.0432064857259397,0.120376682436014,0.0399160887931768,0.0154535940545694,0.151200790202879,0.0994771599439813,0.0234986344409727
0.00714108567096548,0.0440974802068519,0.120629082817624,0.0403129071094331,0.0162560972915781,0.150697279395663,0.0997975163086233,0.0236037256922255
0.00715206987746625,0.0449045088416577,0.120500023268363,0.0406540840602623,0.0170158776336243,0.149853617774315,0.0997379963139103,0.023642623414207
0.00717811621813308,0.0456248305383314,0.11998991487125,0.0409284128847988,0.0177233258347799,0.148663757944966,0.0992852214047206,0.0236091158369724
0.00722109462778498,0.0462572827833473,0.119103881642742,0.0411256064500841,0.0183697743324687,0.147127086408259,0.0984330532869507,0.0234982179766801
0.00728263060199499,0.0468023027062074,0.117851614726038,0.041236466146053,0.018947612584337,0.145248730352062,0.0971828001763405,0.0233062338926976
0.00736406944165073,0.0472619014109744,0.116247152815375,0.0412530329475114,0.0194503829605028,0.143039773986434,0.0955432749838189,0.0230308011159094
0.00746644536210018,0.047639590534024,0.11430859095368,0.0411687195335581,0.0198728556085096,0.140517368512131,0.0935307077476834,0.022670916156857
0.00759045546530888,0.0479402633667722,0.112057718994746,0.0409784211962338,0.0202110814699024,0.137704719414791,0.0911685132812022,0.022226939974254
0.00773643847505744,0.0481700351246835,0.109519594352688,0.0406786026950842,0.0204624227637509,0.134630939672256,0.0884869162109172,0.0217005828905758
0.00790435822051166,0.0483360471459384,0.106722059218068,0.040267359080104,0.020625559903845,0.131330765737239,0.0855224409051334,0.0210948693736808
0.00809379205202163,0.048446239027869,0.103695217094338,0.0397444502910285,0.0207004738799209,0.127844141781075,0.0823172806737201,0.0204140840288594
0.00830392456596422,0.0485090932339795,0.100470884683244,0.039111310977041,0.020688404094138,0.124215683419503,0.0789185657430959,0.0196637007537059
0.00853354706692768,0.0485333589424508,0.0970820326846108,0.0383710374670412,0.0205917831401331,0.120494032745026,0.0753775507227464,0.0188502970394078
0.00878106302401876,0.0485277645679388,0.0935622264915378,0.0375283529870542,0.020414151367969,0.116731113392988,0.0717487404164902,0.0179814548456708
0.00904449950009685,0.0485007299795612,0.0899450777606286,0.0365895513415755,0.0201600546899239,0.112981292986449,0.0680889713667981,0.0170656488806872
0.00932152438904218,0.0484600891268903,0.0862637194591263,0.0355624194877262,0.0198349288079224,0.109300463476463,0.0644564669036395,0.0161121230940228
0.00960946934551833,0.0484128322428902,0.0825503181549933,0.0344561404275518,0.0194449725383314,0.105745056051966,0.0609098843456518,0.015130756754962
0.00990535841876817,0.0483648755805251,0.0788356365428144,0.0332811787263842,0.0189970128638029,0.102371013588914,0.0575073727916847,0.0141319222987976
0.0102059424480238,0.0483208660638844,0.0751486561762323,0.0320491509711638,0.0184983647050357,0.0992327474199793,0.054305658023628,0.0131263377668613
0.0105077391098435,0.0482840275072028,0.0715162662654622,0.0307726825210081,0.017956688823311,0.0963821049844661,0.0513591682386229,0.0121249168163183
0.0108070781608804,0.0482560535187288,0.0679630207047385,0.0294652509592393,0.0173798514450557,0.0938673716004226,0.0487192119209662,0.01113861892504
0.0111001511491262,0.0482370500336389,0.0645109625475159,0.0281410166459285,0.0167757889701414,0.0917323264644745,0.046433217152484,0.0101783020122883
0.0113830648256553,0.0482255284593258,0.0611795128187464,0.0268146415450343,0.016152380477686,0.0900153716317894,0.0445440394279741,0.00925457957540128
0.0116518975813594,0.0482184489457473,0.0579854189620768,0.0255010984088602,0.0155173299555713,0.088748752302417,0.0430893428326316,0.00837768447611843
0.0119027582603223,0.0482113118600459,0.0549427574624281,0.0242154727721285,0.0148780596191908,0.087957886198906,0.0421010581669801,0.00755734146638744
0.0121318464890233,0.0481982936578157,0.0520629849249284,0.0229727597351346,0.014241615404328,0.0876608186527574,0.0416049213538249,0.00680265031886164
0.0123355132681121,0.0481724212049733,0.0493550312837111,0.0217876568367843,0.0136145855430474,0.0878678180349379,0.0416200953877603,0.00612198104961677
0.0125103203407771,0.0481257771745166,0.0468254272563309,0.0206743543862448,0.0130030328429061,0.0885811231873253,0.042158878294368,0.00552288228287134
0.0126530969656502,0.0480497289431898,0.0444784567275273,0.0196463254770865,0.0124124407709153,0.089794850485788,0.0432264983218337,0.00501200339983916
0.0127609930741047,0.0479351741547293,0.0423163251186206,0.0187161189696911,0.0118476728819939,0.0914950638563766,0.0448209971855204,0.00459503078314952
0.0128315281517494,0.0477727970796277,0.0403393368896942,0.0178951593833994,0.0113129448333118,0.0936600074296935,0.0469332028235393,0.00427663821409837
0.012862635305089,0.0475533301897515,0.0385460777562555,0.0171935575456206,0.0108118082011242,0.0962604972380382,0.0495467937314513,0.0040604512759201
0.0128526997270365,0.0472678144104248,0.0369335984872924,0.0166199352935328,0.0103471453576625,0.0992604644716824,0.0526384564517145,0.0039490254335603
0.0128005904057345,0.046907850133365,0.0354975968062572,0.0161812672310296,0.00992117454710004,0.102617638390533,0.0561781363237804,0.0039438372764105
0.0127056838808455,0.0464658309672872,0.0342325934344664,0.0158827426871282,0.00953546395757934,0.106284352983492,0.0601293803543215,0.0040452882094541
0.012567879250683,0.0459351538327437,0.033132099235469,0.0157276512521541,0.00919095328696711,0.110208457604879,0.064449770249489,0.00425271965839511
0.0123876042748725,0.0453104016312946,0.032188772355546,0.0157172952102413,0.00888798132564295,0.114334307597646,0.0690914423293375,0.0045644386422473
0.0121658130113988,0.0445874972231383,0.0313945659951366,0.01585093170858,0.00862631839152941,0.118603808074841,0.074001688903731,0.00497775240948486
0.0119039756979951,0.0437638287582032,0.0307408680225355,0.0161257468764895,0.00840520284280593,0.122957484416803,0.0791236338698217,0.00548901078017949
0.011604061412879,0.0428383459871031,0.0302186330203113,0.0165368636386762,0.00822338114225595,0.127335555917873,0.0843969745112036,0.00609365493210669
0.011268513694317,0.0418116259338464,0.0298185067408274,0.0170773845762578,0.00807915090984989,0.131678991693714,0.0897587808690449,0.00678627162730501
0.0109002192065302,0.0406859059896862,0.0295309432453084,0.0177384706506838,0.00797040616562177,0.13593052758026,0.0951443422700306,0.00756065224153807
0.0105024697981021,0.0394650835692569,0.0293463158311497,0.018509455827518,0.0078946838617294,0.140035620074078,0.100488047826217,0.00840985629851064
0.0100789187272687,0.0381546833311094,0.0292550233574564,0.0193779967123049,0.00784921099204844,0.143943313596737,0.105724286169936,0.00932627935514805
0.0096335322182661,0.0367617948038916,0.0292475931975194,0.0203302553295689,0.00783095191939642,0.147607003128127,0.110788350425674,0.0103017249671315
0.00917053769967541,0.0352949843846702,0.029314781250432,0.0213511121264161,0.00783665583182329,0.150985083348397,0.115617336301073,0.0113274802833254
0.00869436996580427,0.0337641856224396,0.0294476692486325,0.0224244051929193,0.00786290424202235,0.154041483786443,0.12015102206986,0.0123943948174385
0.00820961615311244,0.0321805705924117,0.0296377600858942,0.0235331907111192,0.00790615829494033,0.156746093190909,0.124332717395378,0.0134929621315574
0.00772096009748487,0.0305564040903814,0.0298770723933298,0.0246600190309068,0.00796280567944811,0.159075074226187,0.128110064656945,0.0146134044256746
0.00723312652672879,0.028904882286376,0.0301582354531999,0.0257872206976485,0.00802920718751959,0.161011066084964,0.131435775577984,0.0157457602554179
0.00675082560889708,0.0272399582755903,0.0304745846217481,0.0268971971375935,0.00810174318117469,0.162543273037822,0.134268288948933,0.0168799757291588
0.00627869851042243,0.0255761580734561,0.0308202563978241,0.0279727111695873,0.00817686019627014,0.163667441414274,0.13657234031798,0.0180059995167639
0.00582126472584252,0.0239283914224053,0.031190281745608,0.0289971725293165,0.00825111772640923,0.164385733402244,0.138319438681421,0.0191138817714772
0.00538287196216331,0.0223117618676669,0.0315806761620036,0.0299549129408639,0.00832123519188428,0.164706510841406,0.139488245600438,0.0201938765457636
0.00496764926103574,0.0207413798499786,0.0319885249404895,0.0308314446020505,0.00838413925355836,0.164644044192923,0.140064848898184,0.021236546526116
0.00457946382430373,0.0192321816323744,0.0324120619142305,0.0316136960796348,0.00843701179475636,0.164218160283239,0.140042920963517,0.0222328682485854
0.00422188177365245,0.0177987563900712,0.0328507396144691,0.0322902205683047,0.0084773388863075,0.16345383718013,0.139423754368569,0.0231743356823902
0.00389813296215045,0.0164551837586728,0.0333052882612169,0.0328513728524011,0.00850296080036591,0.162380747403472,0.138216173930403,0.0240530602286956
0.00361107999111519,0.0152148842565129,0.0337777602124256,0.0332894526840335,0.00851212270999943,0.161032745570292,0.136436331371853,0.024861865664594
0.00336319170425862,0.0140904850301421,0.0342715553108013,0.0335988132627997,0.00850352524172909,0.159447296225507,0.134107392976647,0.0255943771529232
0.0031565215420189,0.01309370319707,0.034791421457167,0.0337759336950411,0.00847637365298621,0.157664841875685,0.131259129926243,0.0262451038377211
0.00299269116538147,0.0122352486647434,0.0353434246949278,0.0338194535970268,0.00843042409411875,0.15572811809513,0.127927417419889,0.0268095144324189
0.00287287967329488,0.0115247477472368,0.0359348844652832,0.033730167239849,0.0083660250988563,0.153681428698235,0.124153647683601,0.0272841044740835
0.00279781858976427,0.0109706882594196,0.0365742719318007,0.0335109750990019,0.00828415220183359,0.151569895816499,0.119984065398387,0.0276664530889668
0.00276779264948297,0.0105803860975178,0.0372710712223792,0.0331667925975716,0.00818643367603571,0.149438696645941,0.115469039604669,0.027955266922372
0.00278264626595297,0.0103599726411904,0.0380356040207862,0.0327044184983492,0.00807516589102945,0.147332295847696,0.110662290654626,0.0281504094455819
0.00284179542602252,0.0103144017105191,0.0388788177124209,0.0321323677540064,0.00795331750437095,0.145293684643743,0.105620091911129,0.0282529148421615
0.00294424463438317,0.0104474744118311,0.0398120382479997,0.0314606747274532,0.00782452228953788,0.143363642877309,0.100400463113667,0.0282649866619797
0.00308860841468244,0.0107618800754748,0.0408466914573089,0.0307006723365153,0.00769306061980125,0.141580044460666,0.0950623682360774,0.0281899819974142
0.00327313678523831,0.0112592515776484,0.0419939992653708,0.0298647519486017,0.00756382952047937,0.139977226393361,0.0896649284425537,0.02803238176108
0.00349574413717267,0.0119402334910006,0.043264658480903,0.0289661089288623,0.00744230116323117,0.138585437130203,0.0842666605960249,0.0277977467680269
0.00375404106060742,0.0128045615232215,0.0446685094662022,0.0280184795594327,0.00733446992976178,0.13743037564456,0.078924752265845,0.0274926585033122
0.00404536882844528,0.0138511514379397,0.0462142019356925,0.0270358759757026,0.00724678860724933,0.136532830303502,0.0736943840358636,0.0271246434420884
0.00436683637270953,0.015078195112648,0.0479088662389132,0.0260323262881096,0.00718609470104357,0.135908424837955,0.0686281083077298,0.0267020805841139
0.00471535961240047,0.0164832607208128,0.049757799729445,0.0250216268982838,0.00715952811549685,0.135567474908639,0.0637752906732666,0.0262340930419581
0.0050877028968501,0.0180633934407424,0.0517641779393262,0.0240171131585595,0.00717444150148485,0.135514953352322,0.0591816166366877,0.025730425557583
0.00548052213672156,0.0198152127857134,0.0539287989970529,0.0230314531873867,0.00723830443227078,0.135750558220894,0.0548886645505096,0.0252013102388044
0.00589040894632841,0.0217350026744736,0.0562498682552475,0.0220764681890407,0.00735860234169267,0.136268876272518,0.0509335449973548,0.0246573223756161
0.00631393486483833,0.0238187905582721,0.0587228294588553,0.0211629812253612,0.00754273093257017,0.137059633522585,0.0473486063739962,0.0241092273607916
0.0067476945210168,0.0260624119298691,0.0613402486755466,0.02030069508528,0.007797886562665,0.138108021323889,0.0441612050996885,0.0235678194130703
0.0071883465272503,0.0284615561084747,0.0640917568607306,0.0194980987878508,0.00813095288203757,0.139395082026275,0.0413935370252331,0.0230437533062254
0.00763265098843975,0.0310117888391009,0.0669640557359043,0.018762401484882,0.00854838374010371,0.14089813672806,0.0390625258295607,0.022547371331713
0.00807750278439959,0.0337085478728764,0.0699409893551245,0.0180994921787017,0.00905608232617816,0.142591240516312,0.03717976489274,0.0220885287640394
0.00851996013709732,0.0365471095131825,0.073003680687458,0.0175139236575569,0.00965927683326954,0.144445655547658,0.0357515103685332,0.0216764216567876
0.00895726823882053,0.0395225265969176,0.0761307297121932,0.0170089191398099,0.0103623935840179,0.14643033554071,0.0347787237695735,0.0213194205780783
0.00938687773075073,0.0426295405872137,0.0792984675640382,0.0165864000151764,0.0111689293102845,0.148512414034642,0.03425716177504,0.0210249132116011
0.00980645763243568,0.0458624713757874,0.0824812603209001,0.0162470325896317,0.0120813248484166,0.150657685588259,0.0341775100446149,0.0207991583932248
0.0102139022629533,0.0492150879338026,0.0856518559386722,0.0159902910655573,0.0131008426650293,0.152831069677569,0.0345255579343135,0.0206471543925397
0.0106073319648301,0.052680462716052,0.0887817680078045,0.0158145335891851,0.0142274504366099,0.154997052417625,0.035282412267694,0.0205725247727707
0.0109850879518267,0.0562508140436223,0.0918416893340764,0.0157170882699656,0.0154597128454657,0.157120107997024,0.0364247499325231,0.020577425575065
0.0113457221401186,0.0599173431321996,0.09480192601834,0.0156943465158076,0.0167946941200066,0.159165105826955,0.0379251101068782,0.0206624775904725
0.0116879831522805,0.0636700747197025,0.097632840137781,0.0157418616278049,0.0182278745137259,0.161097708285804,0.0397522267222029,0.020826726990909
0.0120107996345646,0.0674977110788503,0.100305288929164,0.0158544510849355,0.019753084590305,0.162884758854816,0.041871400700895,0.0210676366691447
0.0123132617182138,0.0713875080366767,0.102791050944115,0.0160263010280347,0.0213624615470211,0.164494656297809,0.0442449107235115,0.0213811095580132
0.0125946012892674,0.0753251796701376,0.105063233320415,0.0162510711342173,0.0230464316311267,0.165897709956146,0.046832461142777,0.0217615441901408
0.0128541718852468,0.0792948373242269,0.107096656722663,0.0165219979788578,0.0247937220236763,0.167066473274884,0.0495916656392764,0.0222019218460403
0.0130914293599989,0.0832789685840009,0.108868213799213,0.0168319956043981,0.0265914047891757,0.167976055574336,0.0524785646882854,0.0226939237934522
0.0133059147109411,0.0872584618228487,0.110357194178893,0.0171737531553114,0.0284249749034807,0.16860441400801,0.055448173486297,0.0232280763595342
0.0134972404385598,0.0912126808254457,0.111545567957381,0.0175398305415352,0.030278463892158,0.168932626750961,0.0584550548974457,0.0237939209471983
0.0136650814293017,0.0951195911942701,0.112418222054648,0.0179227536081294,0.0321345900622621,0.168945143733098,0.061453910168322,0.024380205658013
0.0138091708166086,0.0989559368739266,0.112963148339663,0.018315110063453,0.0339749455864564,0.168630005206508,0.0644001792397136,0.0249750949306849
0.0139293008804216,0.102697463009137,0.113171586597643,0.0187096469612468,0.0357802197904791,0.167979015944977,0.0672506423353782,0.0255663934895501
0.0140253288511555,0.106319180872463,0.113038127016908,0.019099370286336,0.037530456968028,0.166987865385375,0.069964014625905,0.0261417807814217
0.0140971873954375,0.109795670868989,0.11256077482647,0.0194776469525951,0.0392053459837051,0.165656189589559,0.0725015254261758,0.0266890517474045
0.0141448994871178,0.113101419277822,0.111740975838724,0.0198383089535923,0.0407845378571533,0.163987576351203,0.0748274718596413,0.027196359024126
0.0141685972357564,0.116211182113467,0.110583599525918,0.0201757585125602,0.0422479863708673,0.16198951679278,0.0769097344124992,0.0276524506401397
0.0141685439714734,0.119100365515914,0.109096877063351,0.0204850720820949,0.0435763053077014,0.159673303761935,0.0787202401500991,0.028046896630611
0.0141451583976079,0.121745409169181,0.107292294466071,0.0207621000788619,0.0447511341139737,0.157053872656856,0.0802353601066443,0.0283702982330108
0.0140990390654753,0.124124159538511,0.105184444065166,0.0210035585792899,0.0457555021374643,0.154149579811939,0.0814362303618663,0.0286144744261632
0.0140309871655597,0.126216222797606,0.102790839737888,0.0212071091362906,0.046574180926278,0.150981918294501,0.0823089903403523,0.0287726221590466
0.0139420258295825,0.128003291369063,0.10013170134659,0.02137142337887,0.0471940146765813,0.147575178032525,0.082844935009735,0.0288394480505682
0.0138334146591644,0.129469440617902,0.0972297111947503,0.0214962298418377,0.0476042204816748,0.14395606295643,0.0830405781413781,0.0288112699177581
0.0137066587446572,0.130601391349484,0.0941097415153917,0.0215823411129267,0.0477966517986142,0.140153279294903,0.0828976222850269,0.0286860861036528
0.0135635116797897,0.131388730106244,0.0907985502612614,0.0216316594539009,0.0477660194585423,0.136197105707895,0.0824228313190279,0.0284636103928901
0.0134059718673012,0.131824077259701,0.0873244440289552,0.0216471586008387,0.0475100639838368,0.132118951346663,0.081627805302568,0.0281452713472354
0.0132362711211353,0.131903195247354,0.0837169107927549,0.0216328393646512,0.0470296721563775,0.127950906653841,0.080528663371649,0.0277341768428749
0.0130568547392578,0.131625034846661,0.0800062293720806,0.0215936576385341,0.0463289317755528,0.123725294042022,0.0791456458767879,0.0272350464858619
0.0128703528882326,0.130991723442541,0.076223065224959,0.0215354252854047,0.0454151216251166,0.119474229447253,0.0775026494379248,0.0266541155123322
0.0126795439978142,0.130008502977701,0.0723980619076369,0.0214646864391952,0.0442986375790554,0.115229208789129,0.0756267076530951,0.0259990135082777
0.0124873115337033,0.128683624658221,0.0685614351177717,0.0213885732117075,0.0429928588590692,0.1110207336364,0.0735474287948108,0.0252786207747693
0.0122965957046844,0.12702820361055,0.0647425745252333,0.0213146451419646,0.0415139594594477,0.106877987153979,0.0712964026897518,0.0245029053911694
0.0121103413958503,0.125056034123399,0.0609696589691519,0.021250716334773,0.0398806690498326,0.102828566326102,0.0689065913596976,0.0236827447414808
0.0119314433810624,0.122783367339118,0.0572692921251617,0.0212046741154246,0.0381139873663487,0.0988982721331734,0.0664117198177761,0.0228297356848902
0.0117626899963727,0.120228656995045,0.0536661671328906,0.0211842934711091,0.0362368572933309,0.0951109563064948,0.0638456831523169,0.0219559972007569
0.0116067068256548,0.117412282648323,0.0501827691132982,0.0211970521634376,0.0342738038214786,0.0914884207835384,0.0612419837162264,0.021073968664363
0.0114659022785844,0.114356261511716,0.0468391237582308,0.0212499517928305,0.0322505478108487,0.0880503638439809,0.0586332095609925,0.0201962066943758
0.0113424169930748,0.111083958228279,0.0436525983750243,0.0213493500804671,0.0301936042661642,0.0848143655234577,0.0560505632684728,0.0193351836784059
0.0112380786933525,0.107619797732242,0.0406377592577126,0.0215008091764587,0.0281298743847611,0.081795904681343,0.0535234484263937,0.018503091027888
0.0111543636984867,0.103988983368117,0.0378062866522257,0.0217089639663581,0.0260862393489565,0.0790084008944905,0.0510791184835227,0.0177116496830637
0.0110923659844835,0.10021722242078,0.0351669465100951,0.0219774132503752,0.0240891625979655,0.0764632752445609,0.0487423900386451,0.0169719299017872
0.0110527745399009,0.0963304629483811,0.0327256167952263,0.0223086355213633,0.0221643065487098,0.074170023681739,0.0465354206146508,0.0162941824098204
0.0110358595348006,0.0923546472009141,0.0304853650939042,0.022703930100352,0.0203361692090082,0.0721362945212295,0.0444775495540541,0.015687683342128
0.0110414674294705,0.0883154861063327,0.0284465734166077,0.0231633837080912,0.0186277455502009,0.0703679599680839,0.0425851991648164,0.0151605955763397
0.0110690247208255,0.0842382562476099,0.0266071052249904,0.0236858621270838,0.0170602177571017,0.0688691727899117,0.0408718312719156,0.0147198487600667
0.0111175498029218,0.0801476181546782,0.0249625089099811,0.0242690262540457,0.0156526775946275,0.0676424031070473,0.0393479525326233,0.0143710397967193
0.0111856724145096,0.0760674546018381,0.0235062513666562,0.0249093712550044,0.0144218832625937,0.0666884550321466,0.0380211612124463,0.0141183552334676
0.0112716601891991,0.0720207289703039,0.0222299751173654,0.0256022866834215,0.0133820523966755,0.0660064667737854,0.0368962286615931,0.0139645168692106
0.0113734517071732,0.0680293645669276,0.0211237725937315,0.0263421348612466,0.0125446923798425,0.0655938995490056,0.035975209842867,0.0139107516500762
0.0114886951051109,0.0641141446420898,0.020176471411328,0.027122344929054,0.0119184688003633,0.0654465198164583,0.0352575780300908,0.0139567864026006
0.0116147909989925,0.0602946304684885,0.0193759243359907,0.0279355204414784,0.0115091125735852,0.0655583769091834,0.0347403785079749,0.0141008673891289
0.0117489385160453,0.056589093708889,0.0187092970962295,0.0287735585977234,0.0113193657902005,0.0659217762244406,0.0344183952473181,0.0143398042317118
0.0118881836034631,0.0530144602048809,0.0181633470067,0.0296277787124739,0.0113489658708274,0.0665272479956158,0.034284324630563,0.014669037289122
0.0120294692694456,0.049586264108391,0.0177246862007047,0.0304890567577531,0.0115946673732168,0.0673635133559347,0.0343289518714249,0.0150827269976682
0.0121696877553748,0.046318612463094,0.0173800249654493,0.0313479626744199,0.0120503008310232,0.0684174523628054,0.0345413280731861,0.0155738632416022
0.0123057346270655,0.0432241599296554,0.0171163926345005,0.0321948978851277,0.0127068680713752,0.0696740818509553,0.0349089478158226,0.0161343926805127
0.0124345644084411,0.0403140918516207,0.0169213350425374,0.0330202315922964,0.0135526733147375,0.071116553050614,0.0354179278367102,0.0167553619848757
0.0125532469660432,0.0375981131840567,0.0167830881920529,0.0338144353971786,0.0145734889445056,0.0727261787107781,0.0360531867992205,0.0174270748283147
0.0126590236362604,0.0350844417438495,0.016690727614713,0.0345682159653908,0.015752754362197,0.0744824973343388,0.0367986257250028,0.0181392600538576
0.0127493620371127,0.0327798060116318,0.016634292777496,0.0352726446820596,0.0170718059562303,0.0763633800392893,0.0376373093793566,0.0188812478730578
0.0128220085261499,0.0306894492083095,0.0166048863695102,0.0359192821453644,0.0185101357636024,0.0783451843821051,0.0385516502986931,0.0196421507197135
0.0128750373149431,0.0288171417556439,0.0165947492358657,0.0365002949410409,0.0200456757841827,0.0804029583030137,0.0395235983147995,0.0204110455585035
0.0129068953303483,0.0271652034298919,0.0165973126885667,0.0370085626264381,0.0216551043329043,0.0825106952259948,0.0405348386134352,0.0211771547836128
0.0129164420144406,0.0257345354857283,0.0166072305401296,0.0374377738392337,0.0233141705361964,0.0846416381092964,0.0415670003507339,0.0219300229505568
0.0129029833109059,0.024524662587764,0.0166203932185784,0.0377825114035984,0.0249980330257253,0.0867686265097092,0.0426018763325279,0.022659686192685
0.0128662989618235,0.0235337843143091,0.016633925864914,0.0380383267228759,0.0266816087537013,0.0888644774804768,0.0436216531332384,0.0233568305904989
0.0128066618613106,0.0227588357721323,0.0166461719630743,0.0382018032388734,0.0283399273225627,0.0909023891835526,0.0446091502814409,0.02401293570091
0.0127248478486055,0.0221955562478889,0.0166566640953761,0.0382706074339177,0.0299484853861903,0.0928563556832157,0.0455480661806779,0.0246204001021159
0.0126221343886838,0.021838563964121,0.0166660836092783,0.0382435247677758,0.0314835952101049,0.0947015819331901,0.0464232268670195,0.0251726467815873
0.0125002871571134,0.0216814342863071,0.0166762109510523,0.0381204779715056,0.0329227217697563,0.0964148881750676,0.0472208320769078,0.0256642068863801
0.0123615343951194,0.0217167784994811,0.0166898679736606,0.0379025262198652,0.0342448036088153,0.0979750913986761,0.0479286922579346,0.0260907802772425
0.0122085297024181,0.0219363206131131,0.0167108529000932,0.0375918452517636,0.0354305535545499,0.0993633487021167,0.0485364498313823,0.026449270792954
0.0120443043761791,0.0223309702374057,0.016743868236651,0.0371916896264454,0.0364627356791294,0.100563446573507,0.0490357772233197,0.0267377942206292
0.0118722103348872,0.0228908898153614,0.016794441849839,0.0367063382426312,0.0373264142372038,0.101562023230408,0.0494205429866371,0.0269556581174531
0.0116958543544593,0.0236055541897165,0.016868841501052,0.0361410233408498,0.0380091693036022,0.102348717218568,0.0496869374720215,0.0271033143684216
0.0115190242990411,0.0244638004838393,0.0169739832455355,0.0355018429680515,0.0385012736979724,0.102916242069265,0.0498335517834319,0.0271822868915373
0.0113456083874069,0.0254538673900576,0.0171173341277205,0.0347956579584563,0.0387958269044914,0.103260391150374,0.0498614069964929,0.0271950774716827
0.0111795091106967,0.0265634249065931,0.0173068093848743,0.0340299761775414,0.0388888436159779,0.1033799770537,0.0497739328416767,0.0271450523157052
0.0110245539756001,0.0277795974847755,0.0175506638405207,0.0332128280351346,0.0387792964546081,0.103276707519415,0.049576895199595,0.0270363117261669
0.0108844056009686,0.0290889845792502,0.0178573766949983,0.0323526373318511,0.0384691134609617,0.102954999378717,0.0492782715985984,0.0268735460885355
0.0107624737268429,0.0304776824171876,0.0182355289778458,0.0314580905899822,0.0379631305978095,0.102421734857133,0.0488880758136426,0.0266618827373938
0.0106618313930792,0.0319313101833009,0.0186936735153707,0.0305380073873976,0.0372689986241488,0.101685969267649,0.048418136299815,0.026406729382277
0.0105851371128649,0.0334350437049871,0.0192401980915336,0.0296012144408055,0.0363970438921011,0.100758603650073,0.0478818367270404,0.0261136199914175
0.0105345645971338,0.0349736600796425,0.0198831832610558,0.0286564267384423,0.035360084305385,0.0996520387839536,0.0472938286864421,0.0257880683269658
0.0105117415522988,0.0365315970014987,0.0206302568470958,0.0277121391544195,0.0341732041000379,0.0983798273533856,0.0466697262080061,0.0254354334470856
0.0105176991715122,0.0380930303564821,0.0214884474131302,0.0267765312917995,0.0328534932090287,0.0969563386441965,0.0460257904206267,0.0250608009643304
0.0105528340253071,0.0396419726899653,0.0224640388020843,0.0258573871982961,0.0314197578388041,0.0953964458083215,0.045378612150887,0.0246688834060158
0.0106168840003218,0.0411623936508634,0.0235624272413613,0.0249620308177165,0.0298922083537466,0.0937152414857905,0.0447448004063099,0.0242639422437182
0.0107089196561651,0.0426383622072043,0.0247879821551316,0.0240972776026282,0.0282921297664594,0.0919277849520012,0.0441406846746122,0.0238497330255279
0.0108273518963973,0.0440542096057639,0.0261439123209152,0.0232694021520724,0.0266415401745685,0.0900488829615255,0.043582038296644,0.0234294739403414
0.01096995632853,0.0453947113402761,0.0276321402822215,0.0224841207995261,0.0249628431967161,0.0880929064262492,0.0430838288457747,0.023005837190405
0.0111339142171578,0.0466452852374547,0.0292531894288574,0.0217465871337071,0.023278481184816,0.0860736451678832,0.0426599997883353,0.0225809615197479
0.011315869462442,0.0477922010469393,0.0310060891863808,0.0210613980104668,0.0216105962533181,0.0840042025645004,0.042323286033797,0.022156483184915
0.011512000497654,0.0488227954690062,0.0328883037975194,0.0204326076854144,0.0199807057963251,0.0818969307504471,0.0420850643794747,0.0217335819925657
0.0117181054526564,0.0497256861568993,0.0348956892587032,0.0198637478858693,0.0184093982410294,0.0797634053772742,0.0419552380904976,0.0213130389650537
0.011929698488264,0.0504909787158524,0.0370224817222237,0.0193578515123276,0.0169160536026555,0.077614437218042,0.041942152985986,0.0208953025276263
0.0121421148525376,0.0511104613228915,0.0392613194581343,0.0189174771079915,0.0155185923104176,0.0754601162533635,0.042052541250125,0.0204805604428413
0.0123506218155446,0.0515777813798803,0.0416032991138739,0.0185447308835743,0.0142332548798409,0.0733098819147339,0.0422914892921228,0.0200688146269601
0.0125505321639517,0.0518885972669266,0.044038065419095,0.0182412835508392,0.0130744142458423,0.0711726103479853,0.0426624268906236,0.0196599554315799
0.0127373166294621,0.0520406970976888,0.0465539319005579,0.0180083803762528,0.0120544218776277,0.0690567068413158,0.0431671355347144,0.0192538316609477
0.0129067117413955,0.05203407698036,0.0491380290178406,0.0178468441608415,0.0111834881542743,0.0669701910959586,0.0438057734334883,0.0188503131130553
0.0130548200928062,0.0518709736776695,0.0517764757129117,0.0177570716615206,0.0104695969123464,0.0649207654600726,0.044576913672508,0.0184493436125317
0.0131782006154146,0.0515558496674522,0.0544545706332264,0.0177390239802804,0.00991845362195857,0.0629158605609957,0.0454775921028584,0.0180509837906017
0.0132739467925482,0.0510953309821489,0.0571569997351116,0.0177922111825407,0.00953346633101796,0.0609626573131468,0.0465033631178188,0.0176554436650382
0.0133397506357915,0.0504980986619402,0.0598680567625183,0.017915671693779,0.0093157583339277,0.0590680874915096,0.0476483634844629,0.0172631050627464
0.0133739501816445,0.0497747337609266,0.0625718717090359,0.0181079479096255,0.00926421142295459,0.0572388159206028,0.0489053855344069,0.0168745335323284
0.013375558805426,0.0489375160656978,0.065252640843458,0.0183670604496203,0.00937553847980461,0.055481205909289,0.0502659605371004,0.01649047940655
0.0133442757346455,0.0480001791121603,0.0678948519080864,0.0186904840711876,0.00964438395471141,0.0538012676425297,0.0517204519388116,0.0161118682434268
0.0132804783043002,0.0469776276409671,0.0704834998691135,0.0190751281520225,0.01006345042183,0.0522045887836751,0.0532581580758562,0.015739781671364
0.0131851972215677,0.0458856266237064,0.0730042910137485,0.0195173241510835,0.0106236490390025,0.0506962478830951,0.0548674251311158,0.0153754303519376
0.0130600761674478,0.0447404720762726,0.0754438347433619,0.0200128222158094,0.0113142715536887,0.0492807137383657,0.056535772545712,0.0150201211051981
0.0129073168925697,0.0435586530425435,0.07778982189574,0.0205567991899665,0.0121231814858727,0.047961736691945,0.0582500338638052,0.0146752200765174
0.012729611197363,0.0423565131551796,0.080031186283462,0.0211438802751393,0.0130370221919449,0.0467422399309451,0.0599965154845029,0.0143421133209568
0.012530061839137,0.04114992032322,0.082158244734066,0.0217681761504404,0.014041439582291,0.0456242193132998,0.0617611739117928,0.0140221658546453
0.0123120951192808,0.0399539538411951,0.0841628116263487,0.0224233365630307,0.0151213172655004,0.0446086590078076,0.0635298094852956,0.0137166803385872
0.0120793683315248,0.0387826186047393,0.0860382861409013,0.0231026206983674,0.0162610217809675,0.0436954684677775,0.0652882724274065,0.0134268569206815
0.0118356752138132,0.037648595587941,0.0877797129151393,0.0237989840719373,0.0174446553247126,0.0428834450898126,0.067022676011184,0.0131537560092758
0.0115848521313681,0.0365630362466546,0.0893838181726092,0.0245051809517286,0.0186563129315533,0.0421702661829242,0.0687196117507992,0.0128982656106342
0.0113306872823287,0.0355354063948437,0.0908490225925706,0.0252138803578221,0.0198803404147442,0.0415525129691974,0.0703663623827236,0.0126610744192573
0.0110768349800478,0.034573382772607,0.0921754293766544,0.0259177928735068,0.0211015885524518,0.041025727918453,0.0719511092817608,0.0124426514871224
0.0108267369667667,0.0336828032147285,0.0933647835706795,0.0266098050221064,0.0223056583131537,0.040584504864147,0.0734631307763059,0.0122432330710098
0.010583552625912,0.0328676691190872,0.0944203988812594,0.0272831174883367,0.0234791315863006,0.0402226094308839,0.0748929860083335,0.0120628169171468
0.0103500997905127,0.0321301969367245,0.0953470508918221,0.0279313826620954,0.0246097820419862,0.0399331257450345,0.0762326769055558,0.0119011638083809
0.0101288075486206,0.0314709138557691,0.0961508393635055,0.028548836249532,0.0256867613622337,0.0397086243848713,0.0774757806628095,0.0117578059748663
0.00992168203438781,0.0308887918464282,0.0968390253597487,0.0291304177626264,0.026700756987216,0.0395413457923318,0.0786175471497818,0.01163206197571
0.00973028571796795,0.0303814137505275,0.0974198494893374,0.0296718755443466,0.0276441183586714,0.0394233923298643,0.079654958641116,0.0115230576183554
0.00955573022063537,0.0299451649739876,0.0979023352348904,0.030169852901582,0.0285109489687436,0.0393469209370963,0.0805867514775819,0.0114297521839194
0.00939868219309051,0.0295754442914659,0.098296078685744,0.0306219520863806,0.0292971610767769,0.03930432814122,0.0814133992003135,0.0113509688131745
0.00925938128637451,0.0292668869284215,0.0986110259144033,0.0310267723504609,0.0300004893378479,0.0392884204015985,0.0821370547464736,0.0112854276816687
0.00913766877954032,0.0290135922082188,0.0988572417730472,0.0313839184024032,0.0306204598997071,0.039292564263799,0.0827614484875085,0.0112317805916613
0.00903302514708563,0.0288093471520587,0.099044677495929,0.0316939770876026,0.0311583131310672,0.0393108111737859,0.0832917411230913,0.0111886457269346
0.00894461480674414,0.0286478375124769,0.099182947330132,0.0319584624802805,0.0316168806629456,0.0393379916071327,0.0837343347309686,0.0111546414924513
0.00887133642429115,0.0285228391218697,0.0992811248461323,0.0321797317907244,0.0320004201115789,0.0393697744385426,0.0840966493989001,0.011128418565663
0.00881187733490633,0.0284283846435412,0.0993475670739593,0.032360875543179,0.032314412785849,0.039402690354398,0.0843868745900128,0.0111086894502292
0.00876477070542648,0.0283589028728112,0.0993897711673126,0.0325055852304389,0.0325653301766514,0.0394341209226814,0.084613703147505,0.0110942548042541
0.00872845389557358,0.028309328674325,0.09941426659285,0.0326180015092199,0.032760374672361,0.0394622560975282,0.0847860544696055,0.0110840255438179
0.0087013262037333,0.0282751815367694,0.0994265460234632,0.0327025471684015,0.0329072004966679,0.0394860226368454,0.084912794688801,0.0110770394841472
0.00868180409979942,0.028252611169353,0.0994310387884181,0.0327637512132147,0.0330136229659561,0.0395049862717685,0.0850024649216734,0.0110724714589237
0.00866837222871388,0.0282384104463787,0.099431130501657,0.0328060724394126,0.0330873270359136,0.0395192324925851,0.0850630313781332,0.0110696364713941
0.00865962875635618,0.028229998592411,0.099429230432451,0.0328337318916968,0.0331355885807561,0.039529233477817,0.0851016712971069,0.0110679862331009
0.00865432381362492,0.0282253795803172,0.099426884162913,0.0328505632517857,0.033165022949891,0.0395357104478638,0.0851246061652279,0.0110671001028967
0.00865138972162329,0.0282230814210227,0.0994249242039901,0.0328598892503171,0.0331813749484656,0.0395395007151511,0.0851369906644831,0.0110666716589808
0.00864996139212096,0.0282220815831972,0.0994236470021392,0.0328644317594888,0.03318936368078,0.0395414377933446,0.0851428638127446,0.0110664919693697
0.00864938503677189,0.028221723478085,0.0994230013944833,0.0328662633568113,0.0331925957528216,0.039542252617615,0.0851451672074049,0.011066430559617
0.00864921320122304,0.0282216293348805,0.0994227704370663,0.0328668082851992,0.0331935609197482,0.0395425042072973,0.0851458331790451,0.0110664153548817
