APL,FCR,FDS,FDP,ED,EI,ECU,ECR
0.00544619792881624,0.0340184598734061,0.0571886760043583,0.00241746045418264,0.0187694716589209,0.0897763503435654,0.0567807751017487,0.0153233227879206
0.0067413339534048,0.0331110314948489,0.0796532847914212,0.00471195099095845,0.0204278531403685,0.0895380635217801,0.0608811305504109,0.0178493790056033
0.00795354488905711,0.0321973056127233,0.100818567595722,0.00703963329010644,0.0219379782883112,0.0890295524026133,0.0646876545490018,0.0201936835112592
0.00907364361793062,0.0312833150378585,0.120513628186618,0.00938841605981476,0.0232850941480187,0.0882520364034407,0.0681663805881747,0.0223364007525027
0.0100938693582316,0.0303751795364532,0.138587925165347,0.0117459447520446,0.0244567031732952,0.0872118090006331,0.0712879955208916,0.0242605722885337
0.0110080324594143,0.02947902777377,0.154913739998836,0.0140997000492006,0.0254428197602695,0.0859204156872367,0.0740284317022978,0.0259524252629573
0.0118116168698951,0.0286009160371035,0.169388023392128,0.0164370814277493,0.0262361670909035,0.0843947056046592,0.0763693355035927,0.0274015972732438
0.0125018383136667,0.0277467430381715,0.181933594784225,0.0187454767775088,0.0268323095141564,0.0826567463599898,0.0782984013505096,0.0286012735774823
0.0130776590544012,0.0269221612444931,0.192499712380801,0.0210123214354861,0.0272297198835612,0.0807336016162781,0.0798095695843323,0.0295482384001897
0.0135397620146231,0.0261324867880364,0.201062057331565,0.0232251512868341,0.0274297842649726,0.0786569797650772,0.0809030932187528,0.0302428459668876
0.0138904877177987,0.0253826113385397,0.207622183709582,0.0253716546740292,0.0274367475926026,0.076462766362691,0.0815854817972806,0.0306889182805613
0.0141337375173475,0.0246769198438417,0.21220648537043,0.0274397273347483,0.0272576036315023,0.0741904529675003,0.0818693299432578,0.0308935764590012
0.014274846763336,0.0240192175643867,0.214864733564325,0.0294175341041351,0.0269019325244709,0.0718824747123275,0.0817730357007527,0.0308670124944827
0.0143204322000637,0.0234126689023535,0.215668246666874,0.0312935805968629,0.0263816900949529,0.0695834714469137,0.0813204125000134,0.0306222092012532
0.0142782186901866,0.0228597498906068,0.214707761185171,0.0330567971954259,0.025710954593995,0.0673394913100693,0.0805401998915711,0.0301746173555323
0.0141568509910439,0.0223622159057869,0.212091077874968,0.0346966363034642,0.0249056380955764,0.0651971586620079,0.0794654815709053,0.0295418000347317
0.0139656965548442,0.0219210858512982,0.207940557084959,0.0362031821748609,0.0239831707508303,0.0632028288936276,0.0781330234929347,0.0287430546233824
0.0137146451171005,0.0215366434832766,0.202390533704388,0.0375672711056139,0.0229621662887128,0.0614017506458667,0.0765825485786952,0.0277990228137061
0.0134139102582486,0.0212084557147285,0.195584715542574,0.0387806187808659,0.0218620764952176,0.0598372525296674,0.0748559661657476,0.026731298274023
0.0130738373930621,0.0209354068001749,0.187673620760962,0.0398359512898857,0.0207028414582529,0.0585499678331069,0.0729965732333844,0.0255620406104854
0.0127047219336492,0.0207157465234171,0.178812100639796,0.0407271365874445,0.0195045417755844,0.0575771078497845,0.0710482420426223,0.024313602908132
0.0123166406673799,0.0205471500955914,0.169156983611307,0.0414493134749134,0.0182870587277144,0.0569517927501235,0.0690546078104891,0.0230081786316434
0.0119192986551245,0.020426787483007,0.158864866289519,0.0419990148223139,0.0170697483068196,0.0567024477988961,0.0670582708530311,0.0216674722322114
0.0115218932580523,0.0203514001679579,0.14809006941775,0.0423742805632885,0.0158711346861267,0.0568522711703148,0.0651000290370898,0.0203123966438547
0.0111329963025191,0.0203173835459487,0.136982772142806,0.0425747550135698,0.0147086280780126,0.0574187775833488,0.0632181570951058,0.0189627999900633
0.0107604548462778,0.020320872911793,0.125687335991978,0.0426017634053527,0.0135982710509242,0.0584134209589329,0.0614477486448451,0.017637223213987
0.0104113104388947,0.0203578303990733,0.114340828729418,0.0424583640944875,0.0125545165039855,0.0598413000255052,0.0598201345256616,0.0163526899293265
0.0100917362199899,0.020424130034743,0.10307175608742,0.0421493748456049,0.0115900397284227,0.0617009523933266,0.0583623878617167,0.0151245294945183
0.00980699085619152,0.0205156386404188,0.0919990050807213,0.0416813729181505,0.0107155862340744,0.0639842436494427,0.0570969231001122,0.013966234061335
0.00956138827814567,0.0206282913881935,0.0812309971756116,0.0410626686014459,0.0099398562941606,0.0666763573844339,0.056041193829989,0.0128893500492932
0.00935828237319245,0.0207581618672919,0.0708650455382519,0.0403032507351144,0.00926942654987149,0.0697558899897899,0.055207492557918,0.0119034040556988
0.00920006604945089,0.0209015269915763,0.0609869086990409,0.0394147022384794,0.00870870848608572,0.073195052143556,0.0546028545702341,0.0110158625915642
0.00908818421277208,0.0210549267910484,0.051670532119211,0.0384100846646182,0.00825994306352837,0.0769599777065451,0.0542290670359922,0.0102321243872442
0.00902316005387846,0.0212152187012857,0.0429779680713695,0.0373037928063982,0.00792323033416172,0.0810111393156364,0.0540827829264927,0.00955554357208039
0.00900463372540842,0.0213796260808625,0.0349594622503596,0.0361113824233312,0.00769659256596401,0.0853038674172627,0.0541557370347926,0.00898748183459781
0.00903141228199361,0.0215457812115741,0.0276536929265942,0.0348493752353072,0.00757606919951761,0.0897889665572554,0.0544350592769419,0.00852738760700786
0.00910152976516205,0.0217117634368082,0.021088146428249,0.0335350449747682,0.00755584171760365,0.094413420818164,0.0549036790366055,0.00817290027981559
0.00921231644213857,0.0218761329398863,0.015279611856806,0.0321861874058959,0.0076283861732417,0.0991211792881461,0.0555408128866348,0.00791997737300354
0.00936047633730656,0.0220379599603627,0.0102347778367542,0.0308208772595392,0.00778465078535425,0.103854011190738,0.0563225259457327,0.00776304245174932
0.00954217225229076,0.0221968485561668,0.00595091433414149,0.0294572161089392,0.00801425574343197,0.108552417640142,0.0572223550245512,0.00769515138462938
0.00975311742059256,0.0223529537865705,0.00241662294028059,0.0281130764913383,0.00830571208646705,0.113156583015472,0.0582119805277056,0.00770817429937589
0.00998867276994755,0.0225069913648589,-0.000387360544416745,0.0268058482231353,0.00864665618155257,0.117607345700919,0.0592619335463214,0.00779299027525765
0.0102439484539176,0.0226602391913251,-0.00248732692994451,0.0255521924529876,0.00902409601095931,0.121847167074716,0.0603423237004201,0.00793969147404578
0.0105139078799804,0.0228145304891551,-0.00391573320339294,0.0243678079856058,0.00942466522881701,0.125821079123684,0.0614235714595696,0.00813779322347949
0.010793472049334,0.0229722382664733,-0.004710335813107,0.0232672136915482,0.00983488066943081,0.129477593905965,0.0624771268981482,0.00837644663034101
0.011077621823393,0.0231362503185308,-0.00491333169699286,0.0222635506041311,0.010241398694191,0.13276956059008,0.0634761567702317,0.00864465056769359
0.0113614958123351,0.0233099332291465,-0.0045705192620787,0.0213684072187866,0.0106312656988318,0.135654955862361,0.0643961836051878,0.0089314602188687
0.0116404818929901,0.0234970835921488,-0.00373048908304634,0.0205916711697617,0.0109921583771768,0.138097590376057,0.0652156631707738,0.00922618960318543
0.0119103007602064,0.0237018653425002,-0.00244385155333103,0.0199414096896779,0.0113126097602439,0.140067711047036,0.065916488545069,0.00951860551106136
0.0121670801778022,0.023928733454781,-0.000762506648696308,0.019423780311433,0.0115822172812452,0.141542480696685,0.0664844089047539,0.00979911003906021
0.0124074185251882,0.0241823458307201,0.00126104034614929,0.0190429726047933,0.0117918290302073,0.142506322960091,0.0669093499682205,0.0100589087107273
0.0126284359392015,0.024467466370524,0.00357431420868609,0.0188011813993277,0.0119337044167944,0.142951128751724,0.0671856239279752,0.010290161280324
0.0128278113027993,0.0247888625457389,0.00612545446976746,0.0186986116508123,0.0120016461356801,0.142876327261488,0.0673120209009095,0.0104861127784759
0.0130038038013975,0.0251512002253254,0.00886374903086042,0.0187335145763138,0.0119911015118908,0.142288826292025,0.0672917800721729,0.0106412030391954
0.0131552586156421,0.0255589376871459,0.0117401174310409,0.018902253885786,0.0118992325100575,0.141202823841722,0.067132444412174,0.0107511536145159
0.0132815972121725,0.0260162204082638,0.0147075449863851,0.0191994002172347,0.011724954390153,0.139639490511385,0.0668456057556398,0.0108130313534856
0.0133827932398819,0.0265267785376294,0.0177214690179228,0.019617851501599,0.0114689430987896,0.137626524910148,0.066446546935576,0.0108252878785598
0.013459335032469,0.0270938297478389,0.0207401182674915,0.0201489768798139,0.01113361170429,0.13519759082233,0.0659537880261584,0.0107877741249132
0.0135121755466022,0.0277199911195413,0.0237248065132684,0.020782781804125,0.0107230570288151,0.132391652304294,0.0653885472104837,0.0107017295137504
0.0135426708435284,0.028407204410904,0.02664018129849,0.0215080919256287,0.0102429787866651,0.129252227881569,0.0647741321226657,0.0105697461774527
0.013552508981859,0.0291566791252494,0.0294544285496776,0.0223127531480608,0.00970057442958356,0.125826585344944,0.0641352821174321,0.0103957095811855
0.0135436320498199,0.0299688570586692,0.0321394335733272,0.0231838446624741,0.00910441317492699,0.122164894920551,0.0634974838152551,0.0101847175183221
0.0135181546214492,0.0308434007660042,0.0346708982482726,0.0241079009292582,0.0084642924937568,0.118319355186262,0.0628862811788206,0.00994297958174123
0.0134782819333868,0.0317792071975741,0.0370284132714808,0.0250711379200066,0.00779108014147765,0.114343305978396,0.0623265991388778,0.00967769898234653
0.0134262306613243,0.0327744468710745,0.0391954838531867,0.0260596788766628,0.0070965447793656,0.110290344696188,0.0618420980475795,0.0093969384686476
0.0133641547519946,0.0338266282336077,0.0411595078539665,0.0270597753775453,0.0063931781986909,0.106213464759946,0.061454574629641,0.00910947231542548
0.0132940785241192,0.0349326861248633,0.0429117067660875,0.0280580203571726,0.00569401200405164,0.102164235791718,0.0611834228189495,0.00882462675927711
0.0132178390392498,0.0360890922252221,0.0444470113907408,0.0290415505155988,0.00501243133710156,0.0981920433640454,0.0610451647789764,0.0085521116428942
0.0131370393951152,0.0372919839377117,0.0457639046074637,0.0299982358291625,0.00436198787594334,0.0943434020028857,0.0610530590125473,0.00830184619598519
0.0130530140587526,0.0385373066932836,0.0468642228823682,0.0309168533572078,0.00375621399047094,0.0906613502670526,0.0612167894972914,0.00808378174182351
0.0129668066972051,0.0398209637479292,0.0477529173120933,0.0317872416494324,0.00320843963082379,0.0871849330684179,0.061542237758454,0.00790772382471754
0.0128791603090701,0.041138967136809,0.0484377756342002,0.0326004317681177,0.00273161329536497,0.0839487742227411,0.0620313387873562,0.00778315608340376
0.0127905189404795,0.0424875829938272,0.0489291088099894,0.0333487516468888,0.00233812823780565,0.0809827410191533,0.0626820213739165,0.00771906820345281
0.0127010399569859,0.043863463404715,0.0492394084855309,0.0340259019475864,0.00203965490525081,0.0783117018423897,0.063488233132926,0.00772379033799735
0.0126106157199051,0.0452637559833695,0.0493829835543028,0.034627003214323,0.00184698049579425,0.0759553770557928,0.0644400496198105,0.0078048363495848
0.0125189034697673,0.0466861828847468,0.0493755841842017,0.03514861529787,0.00176985654771026,0.0739282818731747,0.0655238649949967,0.00796875801750674
0.0124253620750834,0.0481290833055286,0.0492340204631269,0.0355887301369007,0.00181685560985626,0.0722397573146403,0.0667226588438772,0.00822101204617657
0.0123292939346356,0.049591416672249,0.0489757821473926,0.0359467381595332,0.00199523823127179,0.0708940819921708,0.0680163310234032,0.00856584149610561
0.0122298899009036,0.0510727260389762,0.0486186666721842,0.0362233680840204,0.00231083167694485,0.0698906550590562,0.0693820946876872,0.00900617322334497
0.0121262750025401,0.0525730615706354,0.0481804238052217,0.03642060066584,0.00276792187801964,0.0692242400987092,0.0707949170365081,0.00954353298561307
0.0120175530964238,0.0540928636579894,0.0476784260427473,0.0365415586500869,0.00336916014550827,0.0688852605541479,0.0722279975903078,0.0101779799157847
0.0119028491995092,0.0556328067387016,0.0471293734322555,0.0365903770240091,0.00411548613060239,0.0688601385907908,0.0736532746010018,0.010908061930036
0.011781348855776,0.0571936085097027,0.0465490399090845,0.0365720588003788,0.005006068417174,0.0691316701190981,0.075041951133658,0.0117307933235618
0.0116523342037004,0.0587758132299584,0.0459520658239502,0.0364923214568376,0.00603826400168599,0.0696794282408432,0.0763650327518737,0.0126416555338698
0.0115152162823676,0.0603795603310715,0.045351798572525,0.0363574380296775,0.00720759781174737,0.0704801853921544,0.0775938677739581,0.0136346219537206
0.0113695627791494,0.0620043495400951,0.0447601804232963,0.0361740758617258,0.00850776339936274,0.071508342549664,0.0787006787229721,0.0147022076307197
0.0112151203299574,0.0636488122393726,0.0441876800677436,0.03594913590329,0.00993064601519389,0.0727363542097134,0.0796590719450961,0.0158355444907721
0.0110518307629941,0.0653104980366354,0.0436432625434727,0.0356895960590033,0.0114663693457932,0.0741351406895826,0.0804445133801791,0.0170244822474321
0.0108798411654664,0.0669856858616647,0.0431343914166675,0.0354023628227956,0.0131033671530624,0.0756744833225284,0.0810347618304881,0.0182577145201823
0.0106995081298228,0.0686692292374694,0.0426670575156871,0.0350941358106368,0.0148284807901644,0.0773234013522531,0.081410255095291,0.0195229290545092
0.0105113968005839,0.0703544445935242,0.042245829653591,0.0347712893818405,0.0166270830714193,0.0790505100109235,0.0815544469588126,0.0208069802568583
0.0103162752621641,0.0720330492043456,0.0418739238329632,0.0344397742735729,0.0184832283274354,0.0808243578927085,0.0814540927827344,0.0220960814403118
0.0101151044755474,0.0736951524711808,0.0415532874995142,0.0341050406220683,0.0203798277386087,0.0826137415807464,0.0810994793175894,0.0233760134124584
0.00990902375382786,0.0753293021182605,0.0412846943532536,0.0337719825940994,0.0222988482956549,0.0843879980850533,0.0804845934727175,0.02463234556469
0.00969933187461568,0.0769225855212991,0.0410678443542566,0.0334449042036859,0.0242215331126875,0.086117279357605,0.0796072265188767,0.0258506654067503
0.00948746425526169,0.0784607850506384,0.0409014641367184,0.0331275055497422,0.0261286403404748,0.0877728154259367,0.0784690134510896,0.0270168122683694
0.0092749669435894,0.0799285841243333,0.0407834049291557,0.0328228885002915,0.0280006974837011,0.0893271719501571,0.0770754103050952,0.028117110323736
0.00906346828832096,0.081309817527954,0.0407107373945603,0.032533580579667,0.0298182672959189,0.090754505529208,0.0754356135361848,0.0291385952201145
0.00885464896310152,0.0825877569316849,0.0406798445041165,0.032261575219091,0.0315622204528776,0.0920308186858236,0.0735624243524041,0.0300692281207571
0.0086502107353041,0.0837454218122524,0.0406865138057504,0.0320083854168115,0.0332140092217333,0.0931342164831472,0.0714720585244223,0.0308980914559958
0.00845184429822118,0.0847659070167282,0.0407260295001217,0.0317751066862862,0.0347559359908508,0.094045166458078,0.0691839014986191,0.0316155619682473
0.00826119664367113,0.0856327198364129,0.0407932641554841,0.0315624848313494,0.0361714110282122,0.09474676147574,0.0667202104997283,0.0322134581264057
0.00807983868109548,0.0863301201218642,0.0408827704461317,0.031370984745461,0.037445194932201,0.0952249817789948,0.0641057685577249,0.0326851598491825
0.0079092339421588,0.0868434554844398,0.0409888742371156,0.0312008574936597,0.0385636223338175,0.0954689503337798,0.0613674982284005,0.0330256982443372
0.00775070913267199,0.0871594810631871,0.0411057705459362,0.031052203513802,0.0395148037561544,0.0954711751134727,0.0585340435752169,0.0332318126087413
0.00760542701515797,0.0872666526261751,0.0412276229332963,0.0309250293893139,0.0402888018125832,0.0952277713462916,0.0556353276276816,0.0333019726372612
0.0074743618202536,0.0871553839770134,0.0413486655848135,0.0308192951761772,0.0408777771220463,0.0947386544514805,0.0527020913197912,0.0332363657381807
0.00735827727637122,0.0868182635744885,0.0414633065613337,0.0307349499178759,0.0412760997624618,0.0940076923133954,0.0497654205887043,0.0330368516586808
0.00725770741422828,0.0862502290800802,0.041566229882938,0.0306719545695299,0.0414804238319216,0.0930428065176016,0.0468562701917112,0.0327068882703747
0.00717294046159188,0.0854487004192425,0.0416524928427191,0.0306302929988586,0.0414897249572904,0.0918560153874532,0.0440049944592315,0.0322514326695744
0.0071040062958755,0.0844136708830397,0.0417176142290312,0.0306099720792619,0.041305302412433,0.0904634139364073,0.0412408956348368,0.031676820921139
0.00705066797169289,0.0831477532171536,0.0417576498271788,0.0306110113864091,0.0409307480570359,0.0888850851583645,0.0385917993681272,0.0309906290433498
0.00701241771480572,0.0816561767365978,0.0417692530126998,0.0306334230385606,0.0403718834399074,0.0871449358983336,0.0360836649630322,0.0302015179704162
0.00698847751552364,0.0799467334239299,0.0417497190673208,0.030677183190132,0.0396366653325057,0.0852704527200576,0.0337402362540887,0.0293190659904134
0.00697780425967065,0.0780296746255912,0.0416970113657174,0.0307421977187853,0.0387350600263768,0.0832923783256402,0.0315827378284752,0.0283535930120791
0.00697909932404959,0.0759175636309898,0.0416097671013238,0.0308282647851433,0.0376788879815119,0.0812443141463875,0.0296296204102002,0.0273159815223859
0.00699082268087827,0.0736250914318386,0.0414872813168859,0.0309350362362813,0.0364816421542353,0.0791622568789767,0.0278963582635579,0.026217498972861
0.00701121167867627,0.0711688622989336,0.0413294703728954,0.0310619793838309,0.0351582847676574,0.0770840756080113,0.0263953003105105,0.0250696254967562
0.00703830467076721,0.0685671533887533,0.041136818329315,0.0312083409563355,0.0337250277611047,0.0750489350930419,0.0251355752764018,0.0238838896252455
0.00706996948369675,0.0658396510619929,0.0409103108363198,0.0313731153860948,0.0321991014225898,0.0730966725818374,0.0241230496679231,0.0226717136758437
0.00710393646068172,0.0630071671193824,0.0406513606031655,0.0315550193280997,0.0305985144145278,0.0712671393382002,0.0233603359325183,0.0214442700380656
0.00713783565650167,0.0600913399220649,0.040361727393328,0.0317524733162227,0.028941807668347,0.0695995218109234,0.022846847007054,0.0202123495611806
0.00716923770390263,0.0571143271886194,0.0400434352323241,0.0319635905357613,0.0272478047672489,0.0681316591852314,0.0225788928604501,0.0189862434033368
0.0071956977861688,0.0540984982080441,0.0396986901591243,0.0321861724975823,0.0255353620997933,0.0668993731746177,0.0225498146037935,0.0177756397539426
0.00721480194040192,0.0510661326865118,0.0393298025233985,0.0324177117682871,0.0238231227816041,0.0659358236883196,0.0227501520199498,0.0165895365524596
0.00722421468610715,0.0480391314959273,0.03893911763554,0.0326554023123342,0.0221292786903807,0.0652709028489775,0.0231678404551138,0.0154361706392557
0.00722172690820796,0.0450387424299886,0.0385289573839215,0.0328961578927942,0.0204713446606139,0.0649306800931148,0.0237884325683409,0.0143229630257796
0.00720530300784489,0.0420853030769312,0.0381015742699942,0.0331366380941347,0.0188659479900657,0.0649369114131067,0.0245953398892986,0.0132564795884877
0.00717312639988942,0.0391980031859501,0.0376591188308966,0.0333732804133916,0.0173286354524166,0.0653066248284672,0.0255700892564708,0.012242406494298
0.00712364233404481,0.0363946697738151,0.0372036210403105,0.0336023364587057,0.0158736994357064,0.0660517916909608,0.0266925900550339,0.0112855398205437
0.00705559683574618,0.0336915789325798,0.0367369852817943,0.0338199108041944,0.0145140245800417,0.067179090520836,0.0279414093334678,0.0103897888740707
0.00696807057852557,0.0311032982529251,0.0362609972326764,0.0340220020220989,0.0132609561724907,0.0686897672006247,0.0292940529147828,0.0095581924666592
0.00686050678392487,0.0286425627539559,0.0357773405154878,0.0342045461555651,0.0121241914534898,0.0705795924027003,0.0307272511811544,0.00879294697822439
0.00673273264809808,0.0263201857629711,0.0352876213490055,0.0343634627662638,0.0111116948504543,0.072838914971629,0.0322172480382711,0.00809544478712575
0.00658497410887275,0.0241450052094736,0.0347933998724434,0.0344947027389727,0.0102296379591795,0.0754528090943571,0.0337400906561022,0.00746632168488715
0.00641786383201462,0.0221238653964912,0.0342962265040093,0.0345942963425435,0.00948236481543349,0.0784013125801176,0.035271916562406,0.00690551204758733
0.00623244215309656,0.0202616340151257,0.0337976806723869,0.034658400375221,0.00887238260715299,0.0816597521139298,0.036789234293297,0.00641231058883609
0.00603015064789931,0.0185612535497589,0.0332994086981948,0.0346833442046194,0.00840037747314284,0.0851991487346557,0.038269194229993,0.00598543936314173
0.00581281818668141,0.0170238252130923,0.0328031581594474,0.0346656753685065,0.00806525451107036,0.088986694779316,0.0396898472072806,0.00562311847798718
0.00558263967173957,0.0156487224760819,0.0323108072579516,0.0346022054213565,0.00786420069623443,0.0929862933795153,0.0410303895075214,0.00532313894625086
0.00534214800757193,0.0144337303165202,0.0318243886551608,0.0344900557734164,0.00779276910332193,0.097159152460095,0.0422713933442956,0.0050829362556998
0.00509418007219747,0.0133752054351493,0.0313461072641445,0.0343267023146501,0.00784498257577189,0.101464425224543,0.0433950213777028,0.00489966336711453
0.00484183746633227,0.0124682520578144,0.0308783506280867,0.0341100175487436,0.00801345476821986,0.105859887012688,0.0443852226110574,0.00477026183336927
0.00458844266527945,0.0117069078294803,0.0304236899097875,0.0338383096258847,0.00828952630027925,0.110302635584696,0.0452279065883247,0.00469152965686646
0.00433749108735237,0.0110843346863588,0.0299848699727164,0.0335103583767956,0.00866341363689037,0.114749800844174,0.045911093710034,0.00466018461188906
0.00409259964270852,0.0105930102259035,0.0295647882850478,0.0331254485133918,0.00912436829078507,0.119159250300532,0.0464250410717492,0.00467292206294806
0.00385745248911279,0.0102249156590525,0.029166463714466,0.0326833993195661,0.00966084404543521,0.123490275591947,0.0467623444347971,0.00472646662167308
0.00363574489848952,0.00997171662989794,0.0287929969704316,0.0321845892163296,0.0102606701004178,0.127704242558026,0.0469180168423644,0.00481761711760895
0.00343112624676008,0.00982493304907098,0.0284475241099538,0.0316299735524581,0.0109112282708759,0.131765186267977,0.0468895430872406,0.00494328431738092
0.00324714313233341,0.00977609414182126,0.0281331637887265,0.0310210947797645,0.0115996325033117,0.135640335320805,0.0466769081995511,0.0051005208505608
0.00308718351034813,0.00981687556490268,0.0278529589566256,0.0303600850835557,0.0123129088633554,0.139300554248871,0.0462825983497869,0.00528654302929579
0.00295442257153505,0.00993921660682077,0.0276098146493068,0.0296496617668001,0.0130381738175214,0.142720694822412,0.0457115736722673,0.00549874460934757
0.00285177097775872,0.0101354168555451,0.0274064348135114,0.0288931149995432,0.013762808369421,0.145879845096329,0.0449712136776685,0.00573470290830609
0.00278182600753095,0.0103982129684168,0.0272452620191891,0.0280942868393054,0.0144746256843419,0.148761464087788,0.0440712363735732,0.00599217796613806
0.00274682614848177,0.0107208370222906,0.027128423973423,0.0272575406490291,0.0151620302325789,0.151353394744457,0.0430235914619516,0.00626910552179538
0.00274860968554827,0.011097058187396,0.0270576899212817,0.0263877210182332,0.0158141670496155,0.153647757018678,0.0418423264865501,0.0065635844765003
0.00278857785961392,0.0115212092938544,0.0270344388365061,0.025490105277295,0.016421060262884,0.155640731981068,0.0405434240984746,0.00687385939114346
0.00286766319315305,0.0119881996975999,0.027059640327599,0.0245703479580556,0.0169737403974548,0.157332252456296,0.0391446095473069,0.00719829863755036
0.00298630357341649,0.0124935158878492,0.0271338484206036,0.0236344189800997,0.0174643600167109,0.158725614157117,0.0376651295487237,0.00753536910508205
0.00314442262556773,0.0130332113000956,0.0272572076400959,0.0226885358142012,0.0178862969034277,0.159827018844289,0.0361255056055278,0.00788360871703701
0.00334141679874101,0.0136038865880067,0.0274294700334563,0.0217390901296926,0.018234243337001,0.160645063495887,0.0345472654901478,0.00824159826199728
0.00357614948161082,0.0142026611454173,0.0276500210860274,0.0207925702342054,0.018504279488085,0.16119019612811,0.0329526559522669,0.00860793406598834
0.00384695240877385,0.0148271361482637,0.027917912064596,0.0198554813703937,0.0186939289218235,0.161474165692651,0.0313643394218207,0.00898120280044392
0.00415163460100027,0.0154753490956078,0.0282318963447182,0.0189342661503217,0.0188021947238904,0.16150949664789,0.0298050784788334,0.00935995936174003
0.00448749905370262,0.0161457199913655,0.028590467632573,0.0180352269392473,0.0188295756347875,0.161309016509367,0.0282974135048349,0.00974270844144836
0.00485136729912923,0.0168369899350069,0.0289918983012661,0.0171644513245595,0.018778062439238,0.160885458141163,0.0268633402122995,0.0101278902045072
0.00523961180601053,0.0175481537246103,0.0294342758183041,0.0163277415337129,0.018651115305617,0.160251151202287,0.0255239940092668,0.0105138704120994
0.00564819600377503,0.0182783886732239,0.0299155345174794,0.0155305488185314,0.0184536225672435,0.159417810421241,0.0242993473834838,0.0108989353352969
0.00607272157879969,0.019026981836913,0.0304334798155566,0.0147779141122289,0.0181918409146727,0.158396421434893,0.023207925439471,0.0112812918045415
0.00650848256085453,0.019793257496882,0.030985803041465,0.0140744164426957,0.0178733168404707,0.157197217665656,0.0222665440704013,0.0116590725778326
0.00695052553562934,0.020576506724197,0.0315700868294571,0.0134241305163204,0.017506789656036,0.155829735358273,0.0214900749442374,0.0120303468574142
0.00739371507547492,0.0213759213174237,0.0321838024708423,0.0128305945309176,0.0171020771849586,0.154302930163939,0.0208912412592973,0.0123931354991841
0.00783280328433421,0.0221905349094816,0.0328243008644559,0.0122967886699932,0.0166699459055578,0.152625338429619,0.0204804479081889,0.0127454304495103
0.00826250229842246,0.0230191741087298,0.0334887981862657,0.0118251240121291,0.016221967495801,0.150805268777936,0.0202656492056091,0.0130852180945498
0.00867755864803843,0.0238604219678409,0.0341743574765693,0.011417440971318,0.0157703633567907,0.148851012089225,0.0202522566754539,0.0134105062477688
0.0090728284644201,0.0247125951569492,0.0348778681748494,0.0110750159892267,0.0153278382614002,0.146771057503768,0.0204430885965365,0.0137193542340377
0.00944335247111679,0.0255737353139452,0.0355960262095084,0.0107985750447355,0.014907404320667,0.144574298115897,0.0208383621425441,0.014009905097801
0.00978442946273639,0.0264416140659887,0.0363253168190593,0.0105883125948145,0.0145221969213929,0.142270207513934,0.02143572807636,0.0142804187480724
0.0100916867154533,0.0273137501738994,0.037062001465746,0.0104439147339,0.0141852847852569,0.139868971361297,0.022230347077739,0.0145293049599086
0.0103611457570125,0.0281874365813877,0.0378021101115366,0.0103645855564269,0.0139094764462502,0.137381565620762,0.0232150058514306,0.01475515541742
0.0105892821982629,0.0290597750667543,0.0385414405901408,0.0103490758463159,0.0137071251424461,0.134819781060324,0.0243802701156345,0.0149567741896012
0.0107730787663486,0.0299277164362839,0.0392755668847534,0.0103957132485807,0.013589933829847,0.13219619840269,0.0257146703840179,0.0151332059782858
0.0109100710800824,0.0307881042542886,0.0399998572416605,0.0105024329626616,0.0135687621961978,0.129524117784169,0.0272049152402133,0.0152837610770063
0.0109983858545126,0.0316377195402309,0.0407095018463631,0.0106668076979367,0.0136534380671615,0.12681744310598,0.028836125810094,0.0154080354876012
0.0110367710261401,0.0324733230525163,0.0413995493537307,0.0108860752666505,0.0138525760708869,0.124090522094376,0.030592084615852,0.0155059245274525
0.0110246170233224,0.0332916917786185,0.0420649519822556,0.011157162105183,0.0141734065087259,0.121357947333501,0.0324554921128205,0.015577628674897
0.0109619684495895,0.0340896474206842,0.0427006195151195,0.0114767014423697,0.0146216170704005,0.118634329070391,0.034408224934619,0.0156236511515295
0.010849525837437,0.0348640764891,0.0433014826625573,0.0118410457058206,0.0152012098174062,0.115934053586013,0.0364315908733118,0.0156447874702721
0.0106886376680618,0.035611943226145,0.043862565336674,0.0122462737750869,0.0159143760370055,0.113271039532431,0.0385065762654889,0.0156421074978919
0.0104812833031534,0.0363302971376067,0.044379063775876,0.0126881944327805,0.0167613919311267,0.110658501404147,0.0406140811668113,0.015616930346414
0.0102300476444946,0.0370162762407053,0.0448464292534289,0.0131623475331596,0.0177405382909201,0.108108728366211,0.04273513704262,0.0155707920696489
0.00993808814913987,0.0376671063137045,0.0452604509334633,0.0136640042463954,0.0188480470634243,0.105632887792231,0.0448511022261767,0.0155054062629004
0.00960909447626159,0.0382800965079472,0.0456173360638402,0.0141881678293235,0.0200780771150802,0.1032408631056,0.0469438325294795,0.0154226182527885
0.00924724089057244,0.0388526325551999,0.0459137855369567,0.0147295768157006,0.0214227209355579,0.100941133007552,0.0489958271505517,0.0153243543188482
0.00885713171948324,0.0393821699007555,0.0461470631821417,0.0152827129971291,0.0228720437093844,0.0987406956110187,0.050990351902373,0.0152125679921486
0.00844374053259275,0.0398662298701947,0.0463150563839528,0.0158418167811335,0.0244141559937473,0.0966450391155284,0.0529115417954989,0.0150891856759754
0.00801234408457384,0.0403024019845312,0.0464163242176665,0.016400912330726,0.0260353209850996,0.0946581599398967,0.0547444840886481,0.0149560535350381
0.00756845224178978,0.0406883545422242,0.0464501288427503,0.0169538443417787,0.0277200968606352,0.0927826274558577,0.0564752830745329,0.0148148870888163
0.00711773500019202,0.0410218540737804,0.0464164471124461,0.0174943275229197,0.0294515138134222,0.0910196911465821,0.0580911093510587,0.0146672247126238
0.00666594745401887,0.0413007933092937,0.0463159615913901,0.0180160089242031,0.031211284212399,0.0893694235342203,0.0595802379956447,0.0145143864122109
0.00621885348994011,0.0415232272742044,0.0461500321797044,0.0185125423110506,0.0329800431631024,0.0878308920045507,0.0609320806493863,0.0143574395769624
0.0057821491171863,0.0416874176733022,0.0459206501132248,0.0189776729403071,0.0347376159303791,0.0864023532241769,0.0621372153765675,0.0141971736598341
0.00536138655413529,0.0417918862668938,0.0456303752948844,0.0194053305271976,0.0364633082403817,0.0850814629732751,0.0631874162140465,0.0140340856817047
0.00496190031466457,0.0418354779680998,0.0452822576511156,0.0197897279762493,0.0381362152837977,0.0838654916999575,0.06407568331732,0.0138683780511276
0.0045887364793474,0.0418174335448345,0.0448797447274704,0.0201254635149238,0.0397355450836827,0.0827515347414336,0.0647962748815628,0.0136999695045902
0.00424658614023764,0.0417374701450013,0.0444265802470584,0.0204076239754702,0.0412409514816487,0.0817367076272543,0.0653447426787312,0.0135285191771437
0.00393972383690117,0.0415958661455805,0.0439267003884375,0.0206318867834541,0.0426328710197253,0.0808183198060047,0.0657179730073018,0.013353463037979
0.00367195172995491,0.0413935458861647,0.0433841349682414,0.0207946176299256,0.0438928564393595,0.079994022061921,0.0659142333495888,0.0131740612102327
0.00344655023378657,0.0411321598522307,0.0428029195665578,0.0208929603538924,0.0450038981614898,0.0792619222266322,0.0659332226327247,0.0129894540875523
0.00326623579114225,0.0408141566004905,0.0421870232797928,0.0209249157945012,0.0459507248514252,0.0786206623268123,0.065776121524738,0.0127987247456497
0.0031331263924849,0.040442843775796,0.0415402960494485,0.0208894071815515,0.0467200751841278,0.0780694515827167,0.0654456395271531,0.0126009649997051
0.00304871532512168,0.0400224364217516,0.0408664388962048,0.0207863304863018,0.0473009347807108,0.0776080540484919,0.0649460570929798,0.012395342587252
0.0030138534936816,0.0395580908325336,0.0401689992428462,0.0206165884584534,0.0476847341160897,0.0772367347144139,0.0642832622914539,0.0121811672662708
0.00302874049252489,0.0390559211986837,0.0394513916766277,0.0203821067392553,0.0478655039197057,0.0769561706944151,0.0634647813283452,0.0119579539103691
0.00309292444611883,0.0385229952342878,0.03871694230709,0.0200858302889348,0.047839983876382,0.0767673336315019,0.0624998004820504,0.0117254807143885
0.00320531050173845,0.0379673052164114,0.0379689528824907,0.0197316990451081,0.0476076799551243,0.0766713483455752,0.0613991758393033,0.0114838403495468
0.00336417778375613,0.0373977126003735,0.0372107795212075,0.0193246029250019,0.0471708672271563,0.0766693339341497,0.0601754280951936,0.0112334817448087
0.00356720458470929,0.0368238668380297,0.0364459204667722,0.0188703172718911,0.0465345382606803,0.0767622363952756,0.0588427218547357,0.0109752405289348
0.00381150153030997,0.0362561011543644,0.0356781074647228,0.0183754200593329,0.0457063005870199,0.076950664306879,0.0574168307790774,0.0107103569792984
0.00409365236515126,0.0357053088696339,0.0349113956126175,0.0178471918614602,0.0446962287635897,0.0772347396893658,0.0559150902919385,0.0104404812556749
0.00440976187120639,0.0351828032675016,0.034150246162057,0.0172934997167159,0.0435166764757429,0.0776139744828186,0.0543563380531636,0.0101676663738559
0.00475551032051558,0.034700163330943,0.0333995957787057,0.0167226668200549,0.0421820530155417,0.0780871795815993,0.0527608401626933,0.009894349544899
0.00512621378744947,0.0342690680695857,0.0326649054719179,0.0161433309390439,0.0407085682763216,0.0786524091047128,0.0511501996452382,0.00962332230632149
0.00551688953927987,0.0339011233203128,0.0319521836867111,0.0155642949316331,0.0391139514457335,0.0793069384531061,0.049547243477098,0.0093576897936724
0.00592232555943408,0.0336076858809985,0.0312679804651698,0.0149943725556353,0.0374171500525799,0.0800472712511186,0.0479758848477161,0.00910081976621224
0.00633715313156865,0.0333996898630927,0.0306193520513698,0.0144422324845829,0.0356380170883688,0.0808691680399657,0.0464609581495283,0.00885628245550649
0.00675592140776732,0.0332874791622534,0.0300137967145148,0.0139162436294023,0.0337969940308924,0.081767689119309,0.0450280250878744,0.00862778274478774
0.0071731729572946,0.0332806488362989,0.029459162526387,0.0134243253018645,0.0319147966040348,0.0827372452710576,0.0437031509303334,0.0084190864712815
0.00758351932649833,0.0333878975508789,0.028963527593194,0.0129738059772837,0.0300121085725783,0.0837716524411351,0.0425126497221478,0.00823394270623369
0.00798171552576771,0.0336168926938508,0.0285350541901491,0.0125712941680365,0.0281092877251375,0.0848641881343508,0.0414827961488562,0.00807600369287587
0.00836273213582289,0.0339741487408577,0.0281818201169392,0.012222564362554,0.0262260877170377,0.0860076467125275,0.0406395010251781,0.00794874378896206
0.00872182360864917,0.0344649183369537,0.0279116322684676,0.0119324604454869,0.0243813993219723,0.0871943890897069,0.0400079487814531,0.00785537849135044
0.00905459144983605,0.0350930952206117,0.0277318279599463,0.0117048185489829,0.0225930144935368,0.0884163830159494,0.0396121987461152,0.00779878458580882
0.00935704125602127,0.0358611286207768,0.0276490690938197,0.0115424108051664,0.0208774161613213,0.0896652341598306,0.0394747561436052,0.00778142264605588
0.00962563291093769,0.036769949384472,0.0276691340689641,0.0114469109637499,0.0192495957665303,0.0909322133134229,0.0396161217995425,0.00780526337679224
0.00985732344733156,0.0378189079898691,0.0277967129326593,0.0114188823400813,0.0177228994764249,0.092208288291114,0.0400543304390299,0.00787171949979185
0.0100496020161051,0.0390057237505023,0.028035212005336,0.0114577880695385,0.0163089032940355,0.0934841687428039,0.0408044871628893,0.00798158489083223
0.010200516150957,0.040326444203226,0.0283865742827972,0.0115620231133643,0.0150173169735659,0.0947503697932122,0.0418783124098558,0.00813498245213526
0.0103086884400569,0.0417754147101368,0.0288511211749259,0.0117289668755479,0.0138559164945994,0.095997299447252,0.0432837078202178,0.00833132187554591
0.0103733230184754,0.0433452601713665,0.0294274203092668,0.0119550547446744,0.0128305045346378,0.0972153752782716,0.0450243577411033,0.00856926819162503
0.0103942018619684,0.0450268824080706,0.0301121838294245,0.0122358663923428,0.0119448978234232,0.0983951759009072,0.0470993825130024,0.00884672184604339
0.0103716714400979,0.0468094772870328,0.0309002016746274,0.01256622814799,0.0112009397975363,0.0995276304590292,0.0495030595656695,0.00916081095792552
0.0103066206006591,0.0486805747272197,0.0317843143123287,0.0129403262996698,0.0105985369004757,0.100604245562888,0.0522246267998153,0.00950789636390435
0.0102004504695064,0.0506261033489309,0.0327554289937726,0.0133518279744643,0.0101357170559902,0.101617365725674,0.0552481803560047,0.00988359001220054
0.0100550369002962,0.0526304809309271,0.0338025826659451,0.0137940063685186,0.00980870895791366,0.102560460144305,0.0585526762494073,0.0102827872056006
0.00987268600802069,0.0546767320803154,0.0349130532213954,0.0142598673045138,0.00961204065210564,0.103428424776964,0.0621120425436347,0.0106997130384437
0.00965608362969881,0.056746635021761,0.0360725190001008,0.0147422740732488,0.00953865559441289,0.104217885732239,0.065895405678552,0.0111279830625851
0.00940823997596938,0.0588208996189115,0.0372652646451203,0.0152340672405794,0.00958004431366521,0.104927489903103,0.0698674312993249,0.0115606777724523
0.00913243104436943,0.0608793782305471,0.0384744296737867,0.0157281761146959,0.00972639002733401,0.105558170764233,0.0739887765345442,0.0119904300926212
0.00883213839672625,0.0629013094923341,0.0396822945169503,0.0162177192685678,0.00996672682188396,0.106113378779276,0.0782166471998066,0.0124095248094964
0.00851098864309235,0.0648655926362116,0.0408705974491204,0.0166960926836149,0.0102891090798207,0.106599264733885,0.0825054499321725,0.0128100087931433
0.00817269365169659,0.066751087323885,0.0420208749843971,0.0171570451857139,0.0106807906159864,0.10702480180996,0.0868075259393882,0.0131838108361892
0.00782099236541596,0.068536932220559,0.043114818055224,0.0175947413441555,0.011128411683067,0.10740183248618,0.0910739501326247,0.013522869920314
0.0074595951467068,0.0702028749810957,0.0441346364943018,0.0180038118503692,0.0116181919034142,0.10774503061788,0.0952553772359007,0.0138192706375354
0.00709213166350148,0.0717296067076861,0.0450634245763687,0.018379391326769,0.0121361272943451,0.108071775363263,0.0993029153004785,0.0140653842755142
0.00672210334196147,0.0730990946852181,0.0458855200101102,0.0187171440824772,0.0126681897301466,0.108401939416734,0.103169006866768,0.014254013658704
0.00635284126721822,0.0742949074392482,0.0465868475194354,0.0190132792881278,0.0132005272659145,0.108757597172202,0.10680829820858,0.0143785392418403
0.00598747012394891,0.0753025249813207,0.047155237035404,0.0192645578791665,0.0137196636020302,0.109162657807929,0.110178476395894,0.0144330634233634
0.00562887847900137,0.07610962470825,0.0475807068988013,0.0194682938233213,0.0142126945481814,0.109642425096365,0.11324105130384,0.0144125498620432
0.00527969553745074,0.0767063319546926,0.0478557044159572,0.0196223520590022,0.0146674788462982,0.110223084047411,0.115962057027906,0.0143129548073928
0.00494227442943568,0.0770854252977112,0.0479752986770509,0.0197251446101678,0.0150728204493249,0.110931116871124,0.118312648209134,0.0141313479821504
0.00461868203186327,0.0772424899482921,0.0479373224161506,0.0197756255464619,0.0154186394409204,0.1117926565646,0.120269572581006,0.0138660211455001
0.00431069522721837,0.0771760163461074,0.0477424598392705,0.019773284869652,0.015696129144822,0.112832793543136,0.12181550957722,0.0135165828110133
0.00401980331794231,0.0768874434034962,0.0473942764436638,0.0197181411116017,0.0158978974389759,0.114074856520219,0.122939272461284,0.0130840374760379
0.0037472161049846,0.0763811454411717,0.0468991871236669,0.0196107323994297,0.0160180906153091,0.115539691013518,0.123635874557592,0.0125708473633916
0.00349387700586931,0.0756643603715899,0.0462663611227055,0.0194521058840713,0.0160524980628993,0.117244956768557,0.123906458907333,0.0119809746475575
0.00326048054517748,0.0747470574967705,0.0455075656148077,0.0192438055278647,0.0159986356327707,0.119204461595271,0.123758090861682,0.0113199026207436
0.00304749353215761,0.0736417469688155,0.0446369522968187,0.0189878580223852,0.0158558053178881,0.121427546995291,0.123203418599499,0.0105946350241612
0.00285517917341624,0.0723632375658534,0.0436707920903209,0.0186867560123687,0.0156251292931732,0.123918540966846,0.122260215281176,0.00981367352348518
0.00268362325944743,0.0709283526377654,0.0426271623620716,0.0183434373678803,0.0153095572939428,0.126676294354429,0.120950824583798,0.00898697379299132
0.00253276151776587,0.0693556143681102,0.0415255912130067,0.0179612594506809,0.0149138473640695,0.129693817999257,0.119301535468029,0.00812588074515216
0.00240240729193785,0.0676649045587628,0.0403866652702317,0.0175439679758724,0.0144445207234372,0.13295803796859,0.117341910940229,0.00724304317798238
0.00229227882336502,0.0658771087115136,0.0392316099899322,0.0170956606219075,0.0139097915884257,0.136449684752681,0.115104091439758,0.00635230787885998
0.00220202548524908,0.0640137505736141,0.0380818532931437,0.0166207455285079,0.0133194724283653,0.140143329240151,0.112622090278144,0.00546859329589465
0.00213125230576192,0.0620966256799421,0.0369585835036707,0.0161238944960493,0.0126848550114133,0.144007573508632,0.109931097383184,0.00460774322136114
0.00207954211645752,0.0601474435284556,0.035882311524446,0.0156099908301735,0.0120185679866776,0.148005398154597,0.107066807179449,0.00378636137658559
0.00204647477939346,0.0581874879661896,0.034872446501781,0.015084072461941,0.011334412475782,0.152094660511642,0.104064785582684,0.00302162821942452
0.00203164315892611,0.0562373037499024,0.0339468943414807,0.0145512716685041,0.010647177906818,0.156228731010604,0.100959889364182,0.00233110163789704
0.00203466572257513,0.0543164146010728,0.0331216886947393,0.0140167528943327,0.00997244085444876,0.160357249689703,0.0977857487403304,0.00173250341063086
0.00205519579515435,0.0524430757627573,0.0324106638240574,0.0134856498617625,0.00932634977675668,0.16442698226695,0.0945743213968286,0.00124349339405471
0.00209292751386199,0.0506340628050148,0.0318251779121895,0.0129630029779398,0.00872539828278712,0.168382755216037,0.0913555235170871,0.000881433368644332
0.00214759849714967,0.0489044979510297,0.0313738940357211,0.0124536982509785,0.00818618926092643,0.172168451067272,0.0881569405455312,0.000663142471187024
0.00221898924429333,0.0472677149796799,0.0310626244391095,0.0119624092047729,0.00772519216871133,0.175728046982329,0.0850036168234977,0.000604646291648633
0.00230691934236771,0.0457351632671975,0.0308942420796436,0.0114935432654728,0.00735849601621084,0.17900667928045,0.0819179189414271,0.000720922037541668
0.0024112406418647,0.0443163502983585,0.0308686616897549,0.0110511937214782,0.00710156091090328,0.18195171238207,0.0789194642058424,0.00102564260818571
0.00253182765280725,0.0430188200562831,0.0309828908451324,0.0106390979625791,0.00696897133411017,0.184513784632943,0.0760251044039711,0.00153092289655005
0.00266856550623241,0.0418481631235203,0.0312311499109243,0.010260602500855,0.00697419450564304,0.186647801001184,0.073248955977768,0.0022470720669266
0.00282133591458949,0.0408080540054193,0.0316050583349224,0.00991863510383212,0.00712934723636865,0.188313845996743,0.0706024699197033,0.00318235587335066
0.00299000162213129,0.0399003119386967,0.032093883375026,0.00961568404364221,0.00744497457146637,0.189477997618738,0.068094537004471,0.00434277324049561
0.00317438982377094,0.0391249824669467,0.0326848457755718,0.0093537841168377,0.00792984330046242,0.190113031154763,0.0657316251618122,0.00573185135454758
0.00337427496603026,0.0384804373927192,0.0333634751950016,0.00913450897591144,0.00859075308647285,0.190199006098068,0.0635179450050662,0.00735046352552442
0.00358936133016996,0.0379634899147611,0.0341140064714858,0.00895896940081247,0.0094323676564025,0.189723727624035,0.0614556372224957,0.00919667413681837
0.00381926588314093,0.0375695208312322,0.0349198061784151,0.00882781719902221,0.0104570683183884,0.188683069147651,0.0595449738670574,0.0112656150210235
0.00406350200523811,0.0372926119679953,0.0357638177769189,0.0087412542728817,0.0116648320793944,0.187081141928229,0.0577845659055023,0.0135493974864561
0.00432146476524552,0.0371256844006549,0.0366290133964087,0.00869904610383341,0.013053136813708,0.184930303795335,0.0561715712805418,0.0160370638980014
0.00459241835430865,0.0370606406354542,0.0374988407970237,0.00870053877865258,0.0146168962169902,0.182251008730831,0.0547019002197862,0.0187145822125512
0.00487548617075667,0.0370885107027736,0.0383576549601193,0.00874467886314803,0.0163484275413194,0.17907150784978,0.0533704166840318,0.0215648862324798
0.00516964398146248,0.0371996016084728,0.0391911243798192,0.00883003581645405,0.0182374551691438,0.175427416381614,0.0521711360212331,0.0245679635911054
0.00547371656863841,0.0373836485224172,0.0399866018729631,0.00895482704569063,0.0202711527921614,0.171361158791986,0.0510974186995813,0.0277009927252136
0.00578637822006961,0.0376299657533566,0.0407334487312617,0.00911694591938307,0.022434226335574,0.166921298572397,0.0501421584066519,0.0309385294272559
0.00610615727039435,0.0379275961707163,0.0414233007604157,0.00931399296293222,0.0247090390661073,0.162161756966013,0.0492979606014433,0.0342527429888246
0.00643144469975391,0.0382654586853076,0.0420502663846999,0.00954331018803038,0.0270757796847262,0.157140928060725,0.0485573062176969,0.0376137013208216
0.00676050666653748,0.0386324940130847,0.0426110504079242,0.00980201835145387,0.0295126735182092,0.151920704144864,0.0479126953755571,0.0409897035581475
0.00709150082339407,0.039017808686717,0.0431050012087325,0.010087056956948,0.0319962360332141,0.146565431936061,0.0473567675411984,0.0443476573266526
0.00742249628211626,0.0394108160723069,0.0435340826663561,0.0103952268880215,0.0345015667418498,0.141140824335464,0.0468823970442393,0.0476534961562004
0.00775149707755749,0.0398013718272645,0.0439027736504105,0.0107232355862146,0.0370026802290887,0.13571285166809,0.0464827654088022,0.050872630983243
0.00807646887082021,0.0401799007724908,0.0442178976583657,0.011067744626166,0.0394728697081557,0.130346631802144,0.0461514136572327,0.0539704287073371
0.00839536839196668,0.0405375126338512,0.0444883854545686,0.0114254193793151,0.0418850974334822,0.125105334846863,0.0458822778884191,0.0569127103876603
0.00870617477005817,0.0408661050699818,0.044724975809883,0.0117929801852394,0.0442124056138811,0.12004911843658,0.0456697101347667,0.0596662616878164
0.00900692154352858,0.0411584532275271,0.0449398629246539,0.0121672540332807,0.0464283411005872,0.115234112730676,0.0455084851666389,0.0621993482065093
0.00929572791978198,0.04140828513546,0.0451463024560429,0.0125452253035462,0.0485073867295521,0.110711477624025,0.0453937936782528,0.0644822278073299
0.00957082783064431,0.0416103412589488,0.0453581901829076,0.012924083892707,0.0504253912429464,0.106526556101691,0.0453212229990809,0.0664876504569914
0.00983059552739115,0.0417604151616245,0.0455896277510831,0.0133012691679664,0.052159988094993,0.102718146057273,0.0452867275541893,0.0681913337550982
0.010073566825093,0.0418553717856764,0.0458544887675225,0.0136745084952447,0.0536909922326869,0.0993179084774388,0.045286592292922,0.0695724009164347
0.0102984555022383,0.0418931408179497,0.0461659963988049,0.0140418492506949,0.0550007642739027,0.0963499243879801,0.0453173929710211,0.0706137685906059
0.0105041645814933,0.0418726845671468,0.0465363215018062,0.0144016830399929,0.0560745333880215,0.0938304079787367,0.045375957391582,0.07130247439421
0.0106897921181318,0.0417939419641131,0.0469762086968537,0.0147527606674772,0.0569006727651407,0.0917675789722603,0.0454593313580412,0.071629937355481
0.0108546309153046,0.0416577517747243,0.047494636779224,0.0150941967232924,0.0574709235170871,0.0901616932235886,0.0455647519622855,0.0715921470519914
0.01099816171099,0.0414657581376862,0.0480985194475743,0.0154254634177329,0.0577805630003637,0.0890052268135653,0.0456896290251343,0.0711897775591081
0.0111200399550698,0.0412203005816635,0.0487924524150379,0.0157463740151389,0.0578285124518581,0.088283205947003,0.0458315339819908,0.070428220929652
0.0112200770932749,0.0409242904802638,0.0495785133147753,0.0160570564404238,0.0576173790082699,0.0879736731602832,0.0459881951431262,0.0693175349537549
0.0112982179529797,0.0405810771879732,0.0504561210123234,0.0163579173873875,0.057153429753021,0.0880482796218172,0.0461574989649135,0.0678723031189169
0.0113545160752791,0.0401943091177678,0.0514219605278354,0.016649597232665,0.0564464992575915,0.0884729930993081,0.0463374981359013,0.0661114097623979
0.0113891086426265,0.0397677967317369,0.0524699784079342,0.0169329166402453,0.0555098353219165,0.0892089106293564,0.0465264282565648,0.0640577381008017
0.0114021924155611,0.0393053850896426,0.0535914511078457,0.0172088166714505,0.0543598887516814,0.0902131633228861,0.0467227351966783,0.0617378011218032
0.0113940020922749,0.0388108429843964,0.054775126302578,0.0174782950378528,0.0530160520187299,0.0914398976956086,0.0469251146254337,0.0591813146717928
0.011364792596418,0.0382877740452439,0.0560074344864846,0.0177423414554302,0.051500350718019,0.0928413136452697,0.0471325637110341,0.0564207205568327
0.0113148267429636,0.0377395532157399,0.0572727656438782,0.0180018747481004,0.049837092570378,0.0943687348512662,0.0473444427813669,0.0534906675783652
0.0112443694051572,0.0371692902622939,0.0585538030319565,0.018257683792901,0.048052480788388,0.095973684250153,0.0475605424261284,0.050427460137149
0.0111536887907608,0.0365798204570659,0.0598319033866748,0.01851037411178,0.0461742005603073,0.097608936006555,0.0477811498409719,0.0472684860854981
0.0110430649364707,0.0359737212028232,0.0610875106577161,0.0187603219184354,0.0442309880459381,0.0992295163639099,0.0480071075701945,0.044051636774972
0.0109128050851091,0.0353533521336813,0.0623005893359287,0.0190076374710491,0.0422521902567129,0.100793628870696,0.0482398583097945,0.040814732112606
0.0107632651212712,0.0347209152380947,0.0634510639209968,0.0192521394532728,0.040267322591506,0.10226348401377,0.0484814709125602,0.0375949619166672
0.0105948757234751,0.0340785309375074,0.0645192528063263,0.0194933417287748,0.0383056300269626,0.103606017708226,0.0487346446637851,0.0344283528240194
0.0104081715360915,0.0334283258803238,0.0654862867599503,0.0197304532436843,0.036395658088021,0.104793485282372,0.0490026904695241,0.0313492684779333
0.0102038215882781,0.0327725284069067,0.0663345027493281,0.0199623912138945,0.0345648401034911,0.105803916482712,0.0492894879733745,0.0283899498304724
0.00998265933153967,0.0321135679673499,0.0670478026963478,0.0201878071425396,0.0328391073137796,0.106621415680985,0.0495994165622125,0.0255801017283497
0.00974571086595984,0.0314541748460644,0.0676119661508488,0.0204051246819806,0.0312425278019108,0.107236294635491,0.0499372571176071,0.0229465311958048
0.00949421996411632,0.0307974759746389,0.0680149080204491,0.0206125877694254,0.0297969789163263,0.107645033504296,0.0503080619900867,0.020512841859417
0.00922966829062948,0.030147081495949,0.0682468768643252,0.0208083166834241,0.0285218563184456,0.107850076563646,0.0507169932319592,0.0182991878111245
0.0089537890419918,0.0295071560180383,0.068300593943394,0.0209903688758474,0.0274338217385967,0.107859478294841,0.0511691327201879,0.0163220889827677
0.00866857246132944,0.0288824689021032,0.0681713362496092,0.0211568011303667,0.0265465911711938,0.107686419698479,0.0516692711250784,0.0145943089050331
0.00837626231021899,0.0282784193762398,0.0678569669248246,0.0213057299972967,0.0258707653738219,0.107348613867223,0.0522216844199804,0.0131247945937479
0.00807934315323759,0.0277010342784792,0.0673579147045785,0.021435388362829,0.0254137048436152,0.106867618990553,0.0528299062381555,0.0119186772540821
0.00778051892995471,0.027156938189943,0.0666771030145847,0.0215441770080658,0.0251794516108686,0.106268079559804,0.053496503273127,0.0109773315249123
0.00748268352407929,0.026653296953169,0.0658198304068,0.021630710600792,0.025168699932063,0.105576921005577,0.0542228610827678,0.0102984901463216
0.00718888393679157,0.0261977356550608,0.0647936064566192,0.0216938574059297,0.0253788171498326,0.104822526454155,0.0550089891359654,0.00987641026755705
0.00690227662689207,0.0257982316728167,0.0636079498843206,0.0217327713981292,0.0258039149052002,0.104033924921286,0.0558533555581716,0.00970208711921487
0.00662607784008992,0.0254629836750973,0.0622741574266148,0.0217469152174486,0.026434970078981,0.103240017788681,0.0567527626822068,0.00976351041105994
0.00636350919089855,0.0252002589181292,0.0608050520469068,0.0217360728389476,0.0272599944253649,0.102468865758026,0.0577022736205396,0.0100459585275245
0.00611774016160928,0.0250182231336282,0.0592147172940887,0.0217003516972905,0.0282642515949118,0.10174705304093,0.0586951977524424,0.0105323253309078
0.00589182937595472,0.0249247589110606,0.0575182223213139,0.0216401749795573,0.0294305198473086,0.101099140401177,0.0597231399127841,0.0112034741254575
0.00568866643254788,0.0249272790710202,0.0557313410235639,0.021556265536489,0.0307393980448516,0.100547214092019,0.0607761147560454,0.0120386130609103
0.00551091585226644,0.0250325410511729,0.0538702692629165,0.0214496230458978,0.0321696514643696,0.100110533201765,0.0618427245334203,0.0130156859052549
0.00536096449183777,0.0252464675365283,0.0519513455359929,0.0213214955885499,0.0336985926831977,0.0998052729764946,0.0629103954603943,0.0141117716596814
0.00524087364944622,0.0255739780787953,0.0499907817752454,0.0211733461846413,0.0353024914913963,0.0996443573130105,0.0639656647551778,0.0153034860894626
0.00515233697718967,0.0260188360991359,0.0480044113709197,0.0210068147908764,0.0369570066711501,0.0996373713354854,0.0649945074837495,0.0165673781687141
0.00509664517618974,0.0265835151545209,0.0460074604405258,0.0208236768176908,0.0386376316961432,0.0997905450683825,0.0659826904794085,0.0178803147689968
0.00507465827736541,0.027269087627998,0.0440143464665055,0.0206257999830924,0.040320145907209,0.100106800976437,0.0669161403842598,0.0192198475348821
0.00508678611719078,0.0280751382563374,0.0420385070999289,0.0204151018009055,0.0419810622659987,0.10058586037716,0.0677813140017256,0.0205645564844864
0.00513297741106514,0.0289997043559768,0.0400922615758524,0.0201935098687685,0.0435980619410304,0.101224405061865,0.0685655606948409,0.0218943650569731
0.00521271759762217,0.0300392443262458,0.0381867070913041,0.019962926436314,0.0451504045917439,0.102016289616771,0.0692574671635432,0.0231908210098923
0.00532503537315374,0.0311886358283704,0.0363316518606222,0.0197251980550013,0.0466193021976738,0.102952796737997,0.0698471737381985,0.0244373374476637
0.00546851761272581,0.0324412045912454,0.0345355850452571,0.0194820908254258,0.0479882448079628,0.104022924596048,0.0703266497798775,0.0256193890819061
0.00564133224885109,0.0337887838154819,0.0328056816844519,0.0192352717468374,0.0492432688546191,0.105213694682133,0.0706899165108751,0.0267246605332267
0.0058412586422813,0.0352218030113315,0.0311478386953663,0.0189862966587694,0.0503731619686292,0.106510470820448,0.0709332090816153,0.0277431454855465
0.00606572495823946,0.036729404509383,0.0295667364908819,0.0187366049895417,0.0513696012402422,0.107897283914285,0.0710550744009691,0.0286671969889376
0.00631185195722512,0.0382995859355051,0.0280659202295674,0.0184875208818006,0.0522272231438918,0.109357160750041,0.0710564050331594,0.029491529551707
0.00657650241960966,0.0399193673017206,0.0266478949458355,0.0182402595574185,0.0529436229138418,0.110872456958684,0.070940410483169,0.030213173299223
0.00685633529590613,0.0415749816426456,0.0253142289614111,0.0179959374890856,0.0535192814819422,0.112425192763517,0.070712526053625,0.0308313808171967
0.00714786367673639,0.0432520880470141,0.024065659550118,0.0177555850883143,0.0539574209016596,0.113997386475273,0.0703802595169863,0.0313474888990637
0.00744751568990515,0.0449360053662196,0.022902194738865,0.0175201608191726,0.0542637935670368,0.115571378188901,0.0699529787530011,0.0317647396938308
0.00775169731166057,0.0466119637874283,0.0218232064149767,0.0172905654810273,0.0544464144826896,0.11713013640607,0.0694416479055563,0.0320880677650435
0.00805685587718153,0.0482653698010697,0.0208275122033561,0.0170676549680091,0.0545152475703955,0.118657542523109,0.0688585233901595,0.0323238604813217
0.00835954299548513,0.049882077998264,0.0199134458193389,0.0168522497873301,0.0544818563761308,0.120138650900762,0.0682168225682099,0.0324796987578472
0.00865647562059445,0.0514486612770129,0.0190789168789019,0.0166451402433053,0.0543590288076392,0.12155992422865,0.0675303766710915,0.0325640844652778
0.00894459400904326,0.0529526702093125,0.0183214612202424,0.0164470870288942,0.0541603862741386,0.122909443827966,0.0668132772322246,0.0325861609141507
0.00922111510634041,0.0543828728077821,0.0176382825006602,0.0162588174043231,0.0538999889884173,0.124177091592838,0.0660795240309779,0.0325554335750474
0.00948357978758554,0.055729467529556,0.0170262861163891,0.0160810169771323,0.0535919497253464,0.125354695978012,0.0653426826813365,0.0324814988631743
0.00972989257331386,0.0569842644743456,0.0164821072752263,0.0159143169497077,0.0532500672238871,0.126436132469584,0.0646155607618908,0.0323737887370638
0.00995835286578984,0.0581408315061484,0.0160021358068075,0.0157592771535295,0.0528874884788951,0.127417370964103,0.0639099120574573,0.0322413378629744
0.0101676771379206,0.0591946025282178,0.0155825406065854,0.0156163660175391,0.0525164078164317,0.128296467297897,0.0632361785277854,0.032092578786916
0.0103570116018666,0.0601429439647502,0.0152192963189446,0.0154859392605548,0.0521478099011727,0.129073501448335,0.0626032786625356,0.0319351695270865
0.0105259346865049,0.0609851738958273,0.0149082141625782,0.0153682191510173,0.0517912627947937,0.129750467919596,0.0620184487451094,0.0317758570531289
0.0106744485525881,0.0617225283168433,0.0146449780226714,0.0152632757912227,0.0514547652905482,0.130331122652405,0.0614871405660405,0.0316203788530103
0.010802959177916,0.0623580712616607,0.0144251861606275,0.0151710116599097,0.0511446505107499,0.130820787341472,0.0610129763676801,0.0314734033260259
0.0109122451906998,0.0628965493701452,0.0142443981854088,0.0150911507690091,0.0508655461732023,0.13122611126236,0.0605977600704623,0.0313385085890688
0.0110034163873513,0.0633441956877248,0.0140981864695993,0.0150232339399968,0.0506203910930268,0.131554794345891,0.0602415430778223,0.0312181985095939
0.0110778634633802,0.0637084905784309,0.0139821909689429,0.0149666215451124,0.0504105067994053,0.131815281244338,0.0599427427122837,0.0311139540032067
0.0111372006709349,0.0639978883531751,0.0138921762195295,0.0149205045322333,0.0502357219941752,0.132016441416833,0.0596983109909973,0.0310263164944533
0.0111832029383677,0.0642215170487607,0.0138240889225414,0.0148839239718429,0.050094545623898,0.132167252022827,0.0595039504241096,0.0309549990921366
0.0112177389311373,0.0643888585556393,0.0137741140142551,0.0148557989509491,0.0499843819477005,0.132276497731577,0.059354371453678,0.0308990201019107
0.0112427019280478,0.0645094185755739,0.0137387268304685,0.014834962260158,0.049901778990384,0.132352497496361,0.0592435832924954,0.0308568531959306
0.0112599410792448,0.0645923996376435,0.013714739106301,0.0148202027800024,0.0498427004044221,0.132402866810266,0.0591652071644703,0.0308265885305784
0.0112711962656531,0.0646463936710802,0.0136993369291702,0.014810312756005,0.0498028096562181,0.132434324880497,0.0591127987837705,0.0308060988314405
0.0112780400884171,0.0646791117985498,0.0136901090703699,0.0148041374380253,0.0497777541279911,0.132452557244156,0.0590801651162091,0.0307932035802503
0.0112818303712344,0.0646971677131524,0.0136850640822606,0.0148006239286599,0.0497634348333274,0.132462143513272,0.0590616586680995,0.0307858231176861
0.0112836762258549,0.0647059288903539,0.0136826341330461,0.0147988654466673,0.0497562449629766,0.132466556123422,0.0590524304496698,0.0307821133351644
0.0112844205813938,0.0647094487269139,0.0136816630936638,0.0147981364738026,0.0497532578610675,0.132468229889984,0.0590486201818724,0.0307805708649426
0.0112846421192051,0.0647104923324369,0.0136813761299382,0.0147979134271276,0.0497523426577232,0.132468696071663,0.0590474592290789,0.0307800980102571
