APL,FCR,FDS,FDP,ED,EI,ECU,ECR
0.000819204762254587,0.0108398571722337,0.0878417617275829,-0.00440948076870374,0.0147469971407446,0.0221266855673249,0.0361557277320865,0.0349501166265023
0.00100703462019464,0.0129550955028672,0.0941896135180947,-0.000169803222876522,0.0170207322275417,0.0457207723694293,0.0388618365682402,0.0357376646043895
0.00119095254248896,0.0149487442521135,0.100036670043959,0.00389949793908585,0.01913150357833,0.0679272882706138,0.0413001636160408,0.0364442590138752
0.00136985031960673,0.0168038138868189,0.105327374026648,0.00776657861406925,0.0210609021384281,0.088574073410473,0.0434505249041681,0.0370617543663153
0.00154271071651758,0.0185051410909708,0.110013498931638,0.0114023216598525,0.0227930462813303,0.107511935740892,0.0452974788641302,0.0375831405188668
0.00170862264621285,0.0200396437835193,0.114055018846136,0.014780820742461,0.0243148727758697,0.124617240609189,0.0468307410593685,0.0380026871261973
0.00186679299706501,0.0213965232211744,0.117420765478121,0.0178797853022269,0.025616356664277,0.139793813656787,0.0480454760168225,0.0383160571916369
0.00201655501636385,0.0225674104687867,0.120088856730802,0.0206808605303433,0.0266906564931047,0.152974127906652,0.0489424583355508,0.0385203859888273
0.00215737342489053,0.0235464584388822,0.122046898251333,0.023169860816366,0.0275341863395479,0.164119789434194,0.0495281035470799,0.0386143247915476
0.0022888466098241,0.0243303832187234,0.123291971650077,0.0253369174403537,0.0281466193713858,0.173221362444823,0.0498143749810132,0.0385980514557709
0.00241070631227586,0.0249184592366188,0.123830427852556,0.0271765418196812,0.0285308288407038,0.180297583257678,0.0498185749808931,0.038473251075441
0.00252281521470402,0.0253124724059692,0.123677502749316,0.0286876061193025,0.0286927720797212,0.185394014629337,0.0495630286503781,0.038243069458309
0.00262516276582755,0.0255166347706326,0.122856771133981,0.0298732444755035,0.0286413227222289,0.188581198729489,0.0490746690562319,0.0379120410351846
0.00271785947901269,0.0255374640141944,0.121399457527945,0.0307406801555859,0.0283880567432399,0.18995237902544,0.0483845353573559,0.037485992422908
0.00280112985381739,0.0253836314381959,0.119343627454364,0.0313009860680965,0.0279469987189333,0.189620873215059,0.0475271983008285,0.0369719234771796
0.00287530405186646,0.0250657824599888,0.116733287446585,0.0315687875940669,0.0273343355454391,0.187717186982311,0.0465401293724408,0.0363778688185295
0.00294080851568936,0.0245963341738035,0.113617424679275,0.0315619172777486,0.0265681054423388,0.184385959659976,0.0454630297684842,0.0357127439237008
0.00299815581730916,0.0239892549280342,0.110049016776876,0.031301030359727,0.0256678702574733,0.179782827936134,0.0443371337903928,0.0349861804171972
0.00304793410259276,0.0232598310716182,0.106084039191404,0.0308091891337981,0.0246543788216139,0.174071284734297,0.0432044997289098,0.0342083547787059
0.00309079650288202,0.0224244258930504,0.101780492297057,0.0301114236793292,0.0235492283708541,0.167419600536853,0.0421073002094552,0.0333898134635124
0.0031274507972456,0.0215002352228116,0.0971974645170746,0.0292342768302771,0.0223745299184541,0.15999786493079,0.0410871226327192,0.0325412964301179
0.00315864945508385,0.0205050432058554,0.0923942430760016,0.028205341811731,0.0211525821326651,0.151975196461807,0.0401842885559314,0.0316735610086097
0.00318518002882204,0.0194569806840614,0.087429481061062,0.027052801247994,0.0199055571131308,0.14351715873894,0.0394371994431968,0.0307972086698247
0.00320785575168517,0.0183742878986638,0.0823604282163766,0.0258049758293061,0.0186552006420323,0.134783410732055,0.0388817156582087,0.0299225178892753
0.00322750612782369,0.0172750829667843,0.0772422326338412,0.0244898898504806,0.0174225490160804,0.125925610381782,0.0385505753256865,0.0290592862739428
0.00324496722897698,0.0161771377020111,0.0721273202292158,0.0231348597114907,0.0162276643820103,0.117085583852091,0.0384728589193508,0.0282166842658643
0.00326107133202946,0.0150976626612533,0.067064857505968,0.0217661107770855,0.0150893904964472,0.108393768158475,0.0386735041434782,0.027403121835012
0.00327663555988804,0.0140531036084211,0.0621003002664052,0.0204084276067113,0.0140251308465764,0.0999679318422297,0.0391728749739886,0.0266261294124289
0.00329244938101728,0.013058951697282,0.0572750280631158,0.0190848421613707,0.0130506508955439,0.0919121756661758,0.0399863891624441,0.0258922547418618
0.00330926109803932,0.0121295694516847,0.0526260628992716,0.0178163639254861,0.0121799057431411,0.0843162118366394,0.0411242094971738,0.0252069777623884
0.00332776367482997,0.0112780340871506,0.0481858706940238,0.0166217549136602,0.0114248939619064,0.0772549156037806,0.0425910047435346,0.0245746455545619
0.00334858031325007,0.0105159991896742,0.0439822440367706,0.0155173515038828,0.0107955381737632,0.0707881383590133,0.0443857857485333,0.0239984286117104
0.00337225013497232,0.00985357553890737,0.0400382637153486,0.0145169341574903,0.0102995930838962,0.0649607680081686,0.0465018207878775,0.0234802986907819
0.00339921430511125,0.00929923190658564,0.0363723347349073,0.0136316452885431,0.00994258192071557,0.0598030205637932,0.0489266328874902,0.0230210278765319
0.00342980300731856,0.00885971680004395,0.0329982915064815,0.0128699547158047,0.0097277622755849,0.0553309459334975,0.0516420812032384,0.0226202083330698
0.00346422378705644,0.00854000218147205,0.0299255669081004,0.0122376712588589,0.00965612207574915,0.0515471301800918,0.0546245283368197,0.0222762922810834
0.00350255185681368,0.00834325006466569,0.0271594200514926,0.0117379982046787,0.00972640600310174,0.0484415756465101,0.0578450952492318,0.0219866517980688
0.00354472296344401,0.00827080255471236,0.0247012169856405,0.0113716296516751,0.00993517231584761,0.0459927389700868,0.0612700048603695,0.0217476579140637
0.00359052933657017,0.00832219542494849,0.0225487574983169,0.0111368841258564,0.0102768797391674,0.0441687049943089,0.0648610142736311,0.0215547780205803
0.00363961908720947,0.00849519483832672,0.020696640520155,0.0110298712782258,0.0107440037463565,0.0429284721371281,0.0685759336841081,0.0214026897747157
0.00369149927145493,0.00878585642316745,0.0191366603377404,0.0110446869632367,0.0113271810874124,0.0422233227099735,0.0723692273438393,0.0212854087473647
0.00374554271963056,0.00918860565378602,0.0178582252738506,0.0111736317466991,0.0120153808539144,0.0419982507279481,0.0761926888310661,0.0211964265217121
0.00380099864554169,0.00969633832902657,0.0168487897563551,0.0114074478838842,0.0127960997733868,0.0421934200959149,0.0799961801867336,0.0211288559623295
0.00385700695909949,0.0103005397781007,0.0160942902446791,0.0117355697921258,0.0136555789044789,0.0427456275904131,0.0837284228616212,0.021075580794224
0.00391261607421267,0.0109914211385536,0.0155795751480121,0.0121463828227243,0.014579038539961,0.0435897474363816,0.0873378279642463,0.0210294071624851
0.00396680383819831,0.0117580706968969,0.015288818587331,0.0126274849774207,0.0155509279355731,0.0446601368711605,0.0907733537495607,0.0209832151320445
0.00401850107722283,0.0125886180911849,0.0152059083668968,0.0131659465297928,0.0165551864099526,0.0458919840418906,0.093985379019943,0.0209301078386487
0.00406661719278022,0.0134704092581631,0.0153148001226643,0.013748563258101,0.0175755122862787,0.0472225800725258,0.0969265811832385,0.0208635553406464
0.00411006721474922,0.0143901902861338,0.015599831577813,0.0143620997791104,0.0185956359245076,0.0485924963341821,0.0995528061078537,0.020777529841247
0.00414779964247776,0.0153342986482306,0.0160459921224233,0.0149935198468088,0.0195995925966448,0.0499466478017292,0.101823913612007,0.0206666293001232
0.00417882427824852,0.0162888604660942,0.0166391434253623,0.0156302003567571,0.0205719902442562,0.0512352255290599,0.103704579615586,0.0205261873673752
0.00420223919549536,0.0172399923529327,0.0173661877691839,0.0162601257644392,0.0214982665999923,0.0524144856291633,0.105165035895668,0.0203523686098123
0.00421725606915182,0.0181740059401658,0.0182151829837607,0.0168720602177445,0.0223649300972924,0.0534473876317487,0.106181731144889,0.0201422486487301
0.00422322327153034,0.0190776124713425,0.01917540556355,0.0174556958008664,0.0231597795141045,0.0543040802008002,0.106737901431599,0.0198938787436987
0.00421964627887666,0.0199381241058881,0.020237365775977,0.0180017764404054,0.0238720982732198,0.0549622353385327,0.106824042395733,0.0196063338422297
0.00420620493764072,0.020743648061218,0.0213927796218945,0.0185021977358585,0.0244928204321372,0.0554072326181958,0.106438277609657,0.0192797429958122
0.00418276706596963,0.0214832695489181,0.0226345024516979,0.0189500829607325,0.0250146661395696,0.0556321943650055,0.105586616228426,0.0189153015939707
0.00414939790970842,0.0221472196788234,0.0239564287997246,0.0193398351252475,0.0254322442951459,0.0556378738842708,0.104283089896171,0.0185152657569604
0.0041063651866837,0.0227270250796261,0.0253533632951343,0.0196671650617582,0.0257421197431946,0.0554324023608943,0.102549757846203,0.0180829300249894
0.00405413972589536,0.023215636724489,0.0268208682199023,0.0199290961479307,0.0259428427219368,0.055030904642071,0.100416571967285,0.0176225898608245
0.00399339188835941,0.0236075359811588,0.0283550940275242,0.0201239471698403,0.0260349398670303,0.0544549980932534,0.097921099215351,0.0171394902796838
0.00392498396092227,0.0238988158259634,0.0299525996084083,0.0202512955329257,0.0260208682551771,0.0537321906315075,0.0951081051052697,0.016639761273839
0.00384995865493376,0.02408723466767,0.0316101691280603,0.0203119232244675,0.0259049358604326,0.0528951934833483,0.0920290069314894,0.01613034013031
0.00376952390400984,0.0241722403132988,0.0333246317824648,0.0203077474997759,0.0256931925976881,0.0519811628081776,0.088741206989493,0.0156188806395482
0.00368503433969016,0.0241549627847564,0.0350926897723496,0.0202417375835242,0.0253932958116693,0.0510308839663533,0.0853073142768723,0.0151136495346118
0.0035979700038893,0.0240381765373187,0.0369107585244808,0.0201178183900037,0.0250143537139,0.0500879127876253,0.0817942611934338,0.0146234110768025
0.00350991291531456,0.0238262343279744,0.0387748223464632,0.0199407625541975,0.0245667506781755,0.0491976887673159,0.0782723229802445,0.0141573012599161
0.00342252203094991,0.0235249757839066,0.0406803085398231,0.019716072682902,0.0240619591431242,0.0484066351044729,0.0748140519035177,0.0137246933887865
0.00333750706118818,0.0231416134566478,0.0426219832611748,0.0194498562920195,0.0235123434513653,0.0477612597901444,0.0714931435156866,0.0133350566298314
0.00325660160197614,0.0226845986364622,0.0445938726542904,0.0191486960040551,0.0229309608001441,0.0473072706376562,0.068383256507304,0.0129978086754292
0.00318153610457152,0.0221634692841611,0.0465892124798716,0.0188195171130171,0.0223313636378712,0.0470887152463884,0.0655568090165572,0.0127221634068714
0.00311401124638976,0.0215886830341505,0.0486004282872418,0.0184694540681017,0.0217274068929311,0.0471471547164798,0.0630837728254542,0.0125169746512545
0.00305567224715068,0.0209714389042288,0.0506191463181235,0.0181057173738456,0.0211330626355615,0.0475208784805284,0.0610304851649755,0.0123905776727842
0.00300808457704871,0.0203234918001997,0.0526362336798403,0.0177354628182171,0.0205622439046696,0.0482441675977274,0.0594584978115382,0.0123506306558116
0.00297271137202552,0.019656963978923,0.0546418654006633,0.0173656654011164,0.0200286384965998,0.049346614983798,0.0584234840464173,0.0124039588699211
0.00295089277917342,0.018984157299483,0.0566256156982952,0.0170030004050677,0.0195455529178595,0.0508525123698373,0.0579742243383942,0.0125564042652125
0.00294382742031693,0.0183173693768886,0.0585765709059045,0.0166537336042479,0.0191257665178034,0.0527803141480949,0.0581516903677454,0.0128126829274466
0.00295255615751065,0.0176687157943836,0.0604834617062146,0.0163236221079892,0.0187813956751463,0.0551421871476567,0.0589882444711416,0.0131762524795657
0.00297794834239204,0.017049959670568,0.0623348121912834,0.0160178272029279,0.0185237674503258,0.0579436537627162,0.060506968796331,0.0136491915126455
0.00302069071361629,0.0164723494142589,0.0641191022243801,0.0157408406201541,0.0183633014993735,0.0611833349711621,0.0627211357058486,0.0142320934707739
0.00308127906303014,0.0159464654796913,0.0658249374923699,0.0154964255194354,0.0183093988899884,0.0648527994814719,0.0656338280737541,0.0149239779039365
0.00316001271449817,0.0154820772372294,0.0674412197746944,0.0152875729865168,0.0183703369641611,0.0689365247985373,0.0692377155811594,0.015722222394266
0.00325699174260716,0.0150880114751411,0.0689573098404325,0.0151164742855525,0.0185531702472181,0.0734119749952737,0.0735149912225962,0.0166225185211017
0.00337211671848693,0.0147720342803527,0.070363177118797,0.0149845088371514,0.0188636381598537,0.0782497984737899,0.0784374703595206,0.0176188548519906
0.00350509066558134,0.0145407479009309,0.0716495329439552,0.0148922478174923,0.019306080541814,0.0834141472939995,0.0839668520350715,0.0187035293271968
0.00365542288662898,0.0143995036636497,0.0728079463862329,0.014839473125297,0.0198833616386617,0.08886311792992,0.0900551392495978,0.0198671928491581
0.00382243438571708,0.0143523314236608,0.0738309420763662,0.0148252110452161,0.02059680277488,0.0945493114622226,0.0966452127441901,0.0210989253918634
0.00400526472521514,0.014401885688191,0.0747120777937821,0.014847779305937,0.0214461240862308,0.100420508820114,0.103671551876189,0.0223863453386428
0.00420288027684748,0.0145494085255907,0.07544599816302,0.0149048457155844,0.0224293964314609,0.106420453258782,0.111061095674212,0.0237157519593022
0.00441408389277371,0.0147947095659289,0.0760284618257731,0.0149934963620375,0.0235430055627494,0.112489727801485,0.118734236062765,0.0250723000120042
0.00463752598832283,0.0151361637116799,0.0764563426987023,0.0151103114514594,0.0247816313295254,0.118566710939853,0.126605932530703,0.0264402045519752
0.00487171689174261,0.0155707274382232,0.0767276097688299,0.0152514470889224,0.0261382447229362,0.124588590650744,0.134586933038506,0.0278029732877627
0.00511504017120922,0.0160939745494429,0.076841292399762,0.0154127214998356,0.0276041249024949,0.130492415181349,0.142585081433392,0.0291436633006585
0.0053657665980372,0.0167001518636908,0.076797437947914,0.0155897041431131,0.0291688975475356,0.1362161590713,0.150506689001149,0.0304451585795027
0.00562206846709984,0.0173822548664633,0.076597066423077,0.0157778057687806,0.0308205954767779,0.141699784188928,0.158257947379278,0.0316904644730986
0.00588203414420994,0.0181321232877887,0.0762421258082016,0.015972367015541,0.0325457424593248,0.146886277385742,0.165746361215905,0.0328630146139318
0.00614368289950231,0.0189405567870229,0.0757354525738245,0.0161687431339794,0.0343294612806837,0.151722647429309,0.172882180428256,0.0339469849012234
0.00640498025111411,0.0197974511078346,0.0750807437020086,0.0163623829795349,0.0361556072351687,0.156160862499542,0.179579811915346,0.0349276077689669
0.00666385410709256,0.0206919548640121,0.0742825476630894,0.0165489012881095,0.0380069281228923,0.160158705132765,0.18575918729696,0.0357914787460136
0.00691821189292348,0.021612646450068,0.0733462813227914,0.0167241440096079,0.0398652513521451,0.16368051732426,0.191347057372056,0.0365268468193123
0.00716595863251244,0.0225477297353915,0.0722782775284699,0.0168842467310239,0.0417116976942703,0.166697809174006,0.196278180419194,0.0371238804924637
0.00740501579098761,0.0234852463970368,0.0710858645709723,0.0170256858986177,0.0435269196075222,0.169189711003851,0.200496373948791,0.0375749025509026
0.00763334069312576,0.0244133018324463,0.0697774744897459,0.0171453221756955,0.0452913603443149,0.171143259150241,0.203955407415074,0.0378745880357705
0.00784894646090372,0.0253203006239535,0.0683627728330162,0.0172404353665394,0.0469855288811644,0.172553515770467,0.206619723388903,0.0380201211853788
0.00804992257347988,0.0261951868110506,0.0668527985673388,0.0173087508537611,0.0485902852159001,0.173423528523679,0.208464982149602,0.0380113074111896
0.00823445624963603,0.0270276837387681,0.065260100078227,0.0173484581347604,0.0500871306597253,0.173764134797831,0.209478425457134,0.0378506356463759
0.00840085482668413,0.0278085276148154,0.0635988523079303,0.0173582224811522,0.051458498213846,0.1735936122433,0.209659050618163,0.0375432860441842
0.00854756914966486,0.0285296880141745,0.0618849413152235,0.0173371907186933,0.0526880386587653,0.172937180004978,0.209017584138007,0.0370970793801778
0.00867321771290139,0.029184568073846,0.0601360054391078,0.0172849916223556,0.0537608981512592,0.171826363539906,0.207576250177502,0.036522367443691
0.00877661093456708,0.0297681776297582,0.0583714254943069,0.017201730899185,0.0546639823769275,0.170298246040823,0.205368340218017,0.035831867107116
0.00885677452794358,0.0302772739088459,0.056612258249098,0.0170879806308302,0.0553862005749555,0.168394636847816,0.202437601814344,0.0350404433629304
0.00891297059140503,0.030710465930558,0.0548811071150616,0.0169447633310013,0.0559186813109778,0.166161188953906,0.198837471465114,0.0341648474860835
0.00894471494517649,0.0310682796370831,0.0532019239105607,0.0167735311668916,0.0562549521572069,0.163646493468796,0.194630176553825,0.0332234159395638
0.00895178946608986,0.0313531805515838,0.0515997385586081,0.0165761410807829,0.0563910775070079,0.160901172007633,0.189885725200856,0.0322357354251713
0.00893424864281653,0.0315695504359284,0.0501003191915559,0.01635482629434,0.0563257516921249,0.157976982836541,0.184680797120323,0.0312222805129303
0.00889242010171433,0.0317236153642864,0.0487297709815638,0.0161121641607383,0.0560603470871807,0.154925954335389,0.179097547873049,0.0302040319897401
0.00882689918573629,0.031823324920841,0.0475140857576261,0.0158510401248121,0.055598917746877,0.151799558928506,0.173222342480613,0.0292020855556424
0.00873853765157851,0.0318781850448727,0.0464786551388698,0.0155746078736857,0.0549481580683939,0.148647941004329,0.167144439584446,0.0282372611341542
0.00862842639946613,0.0318990493658357,0.0456477590975418,0.0152862463176074,0.0541173147681298,0.145519212578595,0.160954651645392,0.0273297226408557
0.00849787227815815,0.0318978748500839,0.0450440420021188,0.0149895143959372,0.0531180510639714,0.142458829706626,0.154744008050533,0.0264986168094094
0.00834836948170913,0.0318874472102186,0.0446879894957334,0.014688104560651,0.0519642643191527,0.139509060143623,0.148602445227257,0.0257617381477277
0.0081815666494294,0.031881081139937,0.0445974209238392,0.0143857953495156,0.0506718613597817,0.136708547962636,0.14261754156991,0.0251352256270053
0.00799923122829721,0.0318923011209607,0.0447870125370214,0.0140864032868489,0.0492584978721793,0.134091974122867,0.136873308695803,0.024633295272708
0.00780321276980334,0.0319345100146556,0.0452678660231091,0.0137937346074204,0.0477432886684879,0.13168980543192,0.131449047503002,0.0242680114097163
0.00759540663134366,0.0320206541322024,0.0460471352473165,0.0135115377396799,0.0461464943980442,0.129528120304223,0.126418277774178,0.0240490980201091
0.00737771929796891,0.0321628943738611,0.0471277218685112,0.0132434578046401,0.0444891893812316,0.12762849900914,0.121847752242018,0.0239837906596226
0.00715203639447939,0.032372293044096,0.0485080481958966,0.0129929943756581,0.0427929158462618,0.126007968425378,0.117796568426259,0.0240767287702809
0.00692019432755848,0.0326585250663324,0.0501819133893045,0.0127634633476297,0.0410793313043763,0.124678995418832,0.11431539255331,0.0243298880445049
0.00668395626194512,0.0330296208505945,0.0521384367403688,0.012557963138978,0.0393698568968614,0.123649526634144,0.111445808215761,0.0247425526098181
0.00644499277625192,0.033491746610598,0.0543620894256471,0.0123793448645735,0.0376853343959196,0.122923073252897,0.109219798148867,0.0253113269277243
0.00620486714132869,0.0340490268348023,0.0568328143390309,0.0122301856980513,0.0360456982443744,0.122498836360717,0.107659363062243,0.0260301870659656
0.00596502482377892,0.0347034128347259,0.0595262324871604,0.0121127644122471,0.0344696678199689,0.122371865282952,0.106776279312438,0.0268905702422603
0.00572678663661289,0.0354546006317493,0.0624139333688993,0.0120290380906353,0.0329744647463718,0.122533241388673,0.106571997220203,0.0278815007044371
0.0054913449655847,0.0363000006579632,0.0654638449958429,0.0119806192724128,0.0315755601167649,0.122970283361191,0.107037682751012,0.0289897497170796
0.00525976262709961,0.037234760580819,0.0686406769097383,0.011968753272083,0.0302864562558768,0.123666774737432,0.108154405876241,0.0302000276651111
0.00503297403888214,0.038251840952455,0.0719064279066513,0.0119942959172435,0.0291185067152685,0.124603218513153,0.109893478312693,0.0314952066577154
0.00481178838760115,0.0393421417282322,0.0752209494659858,0.0120576922054975,0.0280807768289769,0.125757125166598,0.112216940921498,0.0328565720632554
0.00459689433679655,0.0404946763604772,0.0785425550223148,0.0121589562418921,0.0271799460835081,0.127103338656265,0.115078196717823,0.0342641007904049
0.00438886568996931,0.0416967889397479,0.0818286632419406,0.0122976525939282,0.0264202530133263,0.128614400238132,0.118422780253407,0.0356967628920283
0.00418816745836897,0.0429344083248127,0.085036461529485,0.0124728793777196,0.0258034830239086,0.130260944888974,0.122189249948405,0.0371328418049416
0.00399516196597559,0.0441923316287423,0.0881235760828649,0.0126832539929884,0.0253289991466267,0.132012122229785,0.126310187574739,0.0385502678127619
0.00381011486737563,0.0454545286877419,0.0910487365690494,0.0129269031567567,0.0249938150781148,0.133836033528971,0.130713288277789,0.0399269592101824
0.00363320116970814,0.0467044595077247,0.0937724246198127,0.0132014594180138,0.0247927089375971,0.135700177988762,0.135322524682761,0.041241165977669
0.00346451147082522,0.0479253976100195,0.096257494169876,0.0135040664484648,0.024718375034939,0.13757190411264,0.1400593690218,0.0424718112014582
0.00330405861779234,0.0491007527245068,0.0984697501342457,0.013831395061488,0.0247616096386279,0.139418864272007,0.144844056931451,0.0435988254921192
0.00315178486973114,0.0502143856193452,0.100378473294713,0.0141796712920065,0.0249115254863858,0.141209471207977,0.149596874511294,0.0446034687978319
0.00300756950529463,0.0512509065756816,0.101956883156275,0.0145447171834642,0.0251557889634028,0.142913352831056,0.154239445668921,0.0454686325967826
0.0028712367330155,0.0521959488690447,0.103182533951341,0.0149220042030457,0.0254808737067792,0.144501796666193,0.158695991434252,0.0461791147937384
0.00274256374999791,0.05303641029393,0.104037639208372,0.0153067184732344,0.0258723248660148,0.145948171120932,0.162894530719436,0.0467218604990493
0.00262128882268661,0.0537606585989251,0.104509318251762,0.0156938363099909,0.0263150291327518,0.147228310587487,0.166767994788715,0.0470861639127742
0.00250711930345333,0.0543586995368729,0.104589757960237,0.0160782078389302,0.0267934865314131,0.148320855153517,0.170255234384181,0.0472638288848073
0.00239973952816368,0.0548223078695438,0.104276286639191,0.0164546458103632,0.0272920803169942,0.149207541329371,0.173301905986482,0.047249287247057
0.00229881855705552,0.0551451213499751,0.103571361764602,0.016818016427655,0.0277953408870679,0.149873444696113,0.175861227958106,0.0470396738881721
0.00220401773016539,0.0553226963430567,0.102482476539234,0.0171633291757986,0.0282881990015697,0.150307175805312,0.177894595825217,0.0466348564791813
0.00211499801324277,0.055352523528839,0.101021989688708,0.0174858232056438,0.0287562237932895,0.150501026989529,0.179372042858877,0.0460374177672136
0.00203142709809302,0.0552340038264175,0.0992068804910294,0.0177810485650332,0.0291858421515674,0.150451064922477,0.180272534578219,0.0452525901137388
0.00195298617101264,0.0549683874213002,0.0970584309626023,0.018044941158983,0.0295645375404206,0.150157165618206,0.1805840944873,0.0442881446126333
0.00187937619875674,0.0545586813166793,0.0946018404575985,0.01827389045667,0.0298810275727433,0.149622993633574,0.180303768871908,0.0431542395156915
0.00181032357890183,0.0540095320508888,0.0918657824945057,0.0184647985645828,0.0301254202794684,0.148855931815101,0.179437445684122,0.0418632338795293
0.00174558508496905,0.0533270895543634,0.0888819166445147,0.0186151288344793,0.0302893487925571,0.147866968554711,0.177999542969001,0.0404294718996871
0.00168495216242948,0.0525188562244034,0.0856843679860535,0.0187229422544317,0.0303660831724231,0.146670545737681,0.17601257745268,0.0388690419628553
0.00162825473800815,0.0515935239082057,0.0823091840650938,0.0187869205237256,0.0303506169246426,0.145284366848158,0.173506620535915,0.0371995135507171
0.001575364745514,0.0505608014160295,0.0787937780082937,0.0188063756638103,0.0302397251836424,0.143729164791311,0.170518650641724,0.0354396554395504
0.00152619953856205,0.0494312360229004,0.0751763675922293,0.0187812469560675,0.0300319919330135,0.142028431842602,0.167091815823213,0.0336091397440011
0.00148072529314434,0.0482160334382923,0.0714954221097876,0.0187120866588391,0.0297278048488375,0.140208116918169,0.163274625453172,0.0317282375530079
0.00143896044335361,0.0469268812295788,0.0677891298712276,0.0186000361452279,0.0293293179583487,0.13829629564992,0.159120091710506,0.0298175125446167
0.00140097914526385,0.0455757801262345,0.0640948979989803,0.0184467937309966,0.0288403836525734,0.136322815368814,0.154684838713209,0.0278975186170514
0.00136691472285735,0.0441748859572225,0.0604488934308876,0.0182545747591086,0.0282664560269454,0.134318911784129,0.150028191139999,0.0259885064496869
0.00133696302395162,0.0427363631497667,0.0568856317316654,0.0180260640253326,0.0276144669809063,0.132316791100225,0.145211249892687,0.0241101429561933
0.00131138561166277,0.0412722498543744,0.0534376191552888,0.0177643606614741,0.026892676052564,0.130349172620427,0.14029596215186,0.0222812473272496
0.0012905127306068,0.0397943349223287,0.0501350525954382,0.0174729160537935,0.0261104955722189,0.128448791653383,0.13534419573047,0.0205195474534601
0.00127474599061624,0.0383140475955673,0.0470055807173168,0.0171554660504392,0.0252782941899213,0.126647868466107,0.130416830502637,0.0188414604580938
0.00126456068319674,0.0368423612314512,0.0440741273573726,0.016815959358452,0.0244071833973907,0.12497755316679,0.12557288047655,0.0172619005303483
0.00126050760910525,0.035389712141317,0.0413627758095663,0.0164584844152006,0.023508792557754,0.123467356327295,0.120868657317638,0.0157941163416064
0.00126321427790907,0.0339659334603174,0.0388907108193516,0.0160871969630414,0.022595037796549,0.122144572021597,0.116356981395781,0.0144495595077065
0.00127338532269328,0.0325802024013937,0.0366742141248187,0.015706250041835,0.0216778893465783,0.121033698839744,0.112086443797017,0.0132377849858
0.00129180193594759,0.0312409982457389,0.0347267087916387,0.0153197274715268,0.0207691414712349,0.12015586770127,0.108100723700384,0.0121663837648731
0.00131932009864622,0.0299560683513898,0.033058846843335,0.0149315815528543,0.0198801891247143,0.119528291049163,0.104437968553102,0.0112409475790631
0.00135686735008271,0.0287324000974513,0.0316786334193965,0.0145455757345024,0.0190218157181751,0.119163753383792,0.101130247362822,0.0104650646673637
0.00140543781507511,0.0275761976226305,0.0305915792726466,0.0141652332045136,0.0182039964361541,0.119070165782324,0.0982030881723381,0.00984034492618645
0.00146608519882296,0.0264928629934793,0.0298008727908288,0.0137937925524864,0.0174357212990396,0.119250205846145,0.0956751084957138,0.00936647220838704
0.00153991351269773,0.0254869815889497,0.0293075632533258,0.013434171659506,0.0167248415315868,0.119701060055959,0.0935577440628725,0.00904128097753957
0.00162806537814538,0.0245623108517339,0.0291107483810621,0.0130889407510276,0.0160779419224509,0.120414280411084,0.0918550798325611,0.00886085403787787
0.00173170780933964,0.0237217708056016,0.0292077607725433,0.0127603051444958,0.0155002410846801,0.121375763280281,0.0905637883003049,0.00881963780845399
0.00185201537361913,0.022967434812412,0.0295943487832636,0.0124500977293121,0.0149955209962607,0.12256585521611,0.0896731818473153,0.00891057174095097
0.00199015063980247,0.0223005200438991,0.0302648473116689,0.0121597806735743,0.0145660867783661,0.123959587288067,0.0891653862520728,0.00912522895206489
0.00214724192031261,0.0217213785714102,0.0312123334583049,0.0118904552500117,0.0142127571610332,0.125527035951107,0.0890156404007199,0.00945396576007951
0.00232435847996132,0.0212294912164647,0.0324287624670955,0.0116428781377056,0.0139348853939446,0.127233804741671,0.0891927235063878,0.00988607829464058
0.00252248355769378,0.0208234668602286,0.0339050810033415,0.011417482356532,0.0137304095835373,0.129041617626305,0.0896595077052889,0.0104099644571305
0.00274248565248248,0.0205010496018634,0.0356313169908532,0.0112144012278142,0.0135959306923464,0.130909012078436,0.090373630923113,0.0110132894131636
0.00298508852796162,0.0202591353560612,0.0375966470960517,0.0110334942833833,0.0135268157221338,0.13279211810568,0.0912882813329355,0.0116831529743204
0.00325084037668334,0.0200937988303037,0.0397894438329128,0.0108743745861961,0.0135173230523814,0.134645508132088,0.0923530807018801,0.0124062577739079
0.00354008267007593,0.0200003315109323,0.0421973038618437,0.0107364371824665,0.0135607466598678,0.13642310084781,0.0935150508606048,0.0131690777702038
0.00385291940817048,0.0199732911876535,0.0448070580609111,0.0106188882582662,0.0136495758878942,0.138079098553915,0.0947196456713907,0.0139580269896175
0.00418918769600548,0.0200065635765191,0.0476047637638741,0.0105207743242773,0.0137756672840066,0.139568932417987,0.095911828999665,0.0147596283698912
0.00454843070988728,0.02009343673744,0.0505756806831036,0.0104410108110205,0.0139304246458659,0.140850186805711,0.0970371761396297,0.0155606821152516
0.00492987410609444,0.0202266891706007,0.0537042338906908,0.0103784098290312,0.0141049831453183,0.141883475287063,0.0980429728709028,0.0163484323428195
0.00533240682539752,0.0203986925784404,0.0569739687692993,0.0103317072882903,0.0142903936369603,0.142633246658278,0.0988792854740953,0.017110730240249
0.00575456719821663,0.0206015300973419,0.0603675030039398,0.0102995898144804,0.0144778039426051,0.143068506895618,0.0994999775213888,0.0178361916143384
0.00619453527270461,0.0208271301883917,0.0638664793780657,0.0102807217923015,0.0146586347000083,0.143163448815923,0.0998636538777444,0.0185143465153509
0.00665013227694747,0.0210674154100971,0.0674515219972358,0.0102737725706543,0.014824747885488,0.142897982210711,0.0999345168823873,0.0191357783077988
0.00711882799716287,0.0213144642426024,0.0711021989647442,0.0102774437390395,0.014968606104017,0.142258154308978,0.099683121706355,0.0196922490248741
0.00759775660289065,0.0215606830696273,0.0747969961744187,0.0102904964677046,0.0150834203353285,0.141236449702242,0.0990870165009524,0.0201768075723007
0.00808374116717995,0.0217989843004754,0.0785133086900379,0.0103117789330379,0.0151632835653116,0.139831963639341,0.098131251259683,0.0205838778430989
0.00857332685032522,0.0220229655547598,0.0822274569284024,0.0103402536340513,0.0152032878778175,0.138050450726663,0.0968087413656091,0.0209093249871994
0.00906282238776496,0.0222270841416778,0.0859147336312437,0.0103750241290986,0.015199623017262,0.135904258788337,0.0951204778105493,0.0211504994634969
0.00954834915079753,0.0224068210231933,0.0895494849576513,0.0104153606517625,0.0151496549909572,0.133412161652228,0.0930755837404187,0.0213062594668016
0.0100258967402019,0.0225588291049738,0.0931052270976317,0.0104607240927273,0.01505198384438,0.130599103340715,0.090691223458513,0.0213769724279167
0.010491383893164,0.0226810617951686,0.0965547995959158,0.0105107876946165,0.0149064802166025,0.127495861664416,0.0879923729410181,0.0213644958115688
0.0109407233950537,0.0227728788354914,0.0998705573710334,0.0105654555356864,0.0147143005365882,0.124138636188594,0.0850114598018226,0.0212721372654921
0.0113698895795806,0.0228351269272325,0.103024604164758,0.0106248768241008,0.0144778805973416,0.120568565621011,0.0817878785020072,0.0211045946296632
0.0117749867420336,0.0228701923913347,0.105989070090341,0.0106894552525179,0.0142009068237965,0.116831181566614,0.0783673869679413,0.0208678770943777
0.0121523164122141,0.022882022514098,0.108736434670427,0.0107598528748795,0.0138882643694644,0.112975807804839,0.0748013938464352,0.0205692095400918
0.0124984412380327,0.0228761122453603,0.111239894070904,0.0108369878905551,0.0135459616446522,0.109054915765965,0.0711461497855363,0.0202169225710154
0.0128102434292749,0.0228594538152334,0.113473767032753,0.0109220255327911,0.0131810318908435,0.105123447065605,0.0674618597042129,0.0198203308591135
0.0130849762243591,0.0228404483551552,0.115413928849192,0.0110163613887639,0.0128014135931629,0.101238112221539,0.0638117346334563,0.0193896020954833
0.0133203074079084,0.0228287803407222,0.11703825841658,0.0111215969227356,0.0124158124128699,0.0974566708713355,0.060261000766299,0.0189356181170412
0.0135143541863317,0.0228352571869951,0.118327081388398,0.0112395073541848,0.0120335475911699,0.0938371947935963,0.0568758810940144,0.0184698289136032
0.0136657085791857,0.022871617234856,0.119263593076306,0.0113720020549638,0.0116643855770084,0.0904373137484807,0.0537225637696165,0.0180040997090804
0.0137734523333896,0.02295030941546,0.119834247485825,0.0115210775100815,0.011318363586663,0.0873134463448079,0.050866171523284,0.0175505513713273
0.0138371607453061,0.0230842472958058,0.120029102615008,0.0116887631478796,0.0110056061362393,0.0845200225031916,0.0483697467149882,0.0171213949412626
0.0138568956221434,0.0232865398992529,0.119842115179449,0.0118770609718826,0.010736137981335,0.0821087085318715,0.0462932656997631,0.0167287618279063
0.0138331884876238,0.0235702023075872,0.119271378330522,0.0120878804738954,0.0105196969935247,0.0801276482757679,0.0446926942386186,0.0163845318659861
0.0137670155707787,0.0239478504747609,0.118319293073785,0.0123229704077525,0.0103655502208752,0.0786207330933752,0.0436190939025474,0.0161001616768609
0.0136597659741467,0.024431386435474,0.116992661066156,0.0125838488714913,0.0102823159980723,0.0776269109371312,0.043117787876808,0.0158865154720669
0.0135132041758354,0.0250316815678027,0.115302687346967,0.0128717333302798,0.0102777946800317,0.0771795436304837,0.0432275929408161,0.01575369983422
0.0133294281444413,0.0257582662118404,0.113264886801441,0.0131874727123208,0.010358810244152,0.0773058224604413,0.0439801236134878,0.0157109036224661
0.0131108246996518,0.0266190335968385,0.110898895678234,0.0135314840850996,0.0105310646400927,0.0780262542748504,0.0453991750869355,0.0157662442155065
0.0128600239563141,0.0276199653422135,0.108228196403299,0.0139036963405747,0.0107990066160096,0.0793542319720229,0.047500192665809,0.0159266217498561
0.0125798544978296,0.0287648855264133,0.105279767513505,0.0143035029565853,0.0111657168828837,0.0812957035194762,0.0502898355895323,0.0161975836576552
0.0122733004770982,0.0300552503775022,0.102083669569058,0.0147297256498291,0.011632811673899,0.083848951890607,0.0537656420866875,0.0165832024013547
0.0119434615253087,0.0314899805473899,0.0986725749035309,0.0151805905405511,0.0122003667337395,0.0870044947816226,0.0579158017494715,0.0170859695351334
0.0115935162134826,0.0330653423078926,0.0950812482474847,0.0156537180408101,0.01286686347969,0.0907451085790979,0.0627190417149271,0.0177067089386038
0.0112266896151257,0.0347748827616903,0.0913459874351962,0.0161461271091046,0.0136291588282723,0.0950459765285334,0.0681446340506276,0.018444511613978
0.0108462251176754,0.0366094225598903,0.0875040369243023,0.0166542540265681,0.0144824801914594,0.0998749570650233,0.0741525321675721,0.019296694297355
0.0104553602318064,0.0385571079051064,0.0835929899864906,0.0171739853650656,0.0154204472697539,0.105192965339441,0.080693643341539,0.0202587842274227
0.0100573060097497,0.0406035218318711,0.0796501969256399,0.0177007042144271,0.0164351222612999,0.11095445849467,0.0877102422604137,0.0213245323214045
0.00965522974655761,0.0427318531419118,0.0757121958640519,0.0182293483009875,0.0175170897984349,0.117108011961108,0.0951365271003514,0.0224859564557907
0.00925224067238174,0.0449231201821811,0.0718141796672124,0.0187544786011886,0.0186555672865833,0.12359697048338,0.102899315647198,0.0237334157238902
0.00885137816306474,0.0471564457887284,0.067989509058016,0.0192703572239563,0.0198385454774245,0.130360156519205,0.110918875225452,0.0250557157393721
0.00845560166270518,0.0494093788103374,0.064269279605713,0.0197710332909963,0.0210529582040191,0.137332621320573,0.119109877135912,0.0264402441716406
0.00806778133415936,0.0516582562179093,0.0606819490580179,0.0202504350703369,0.0222848792749138,0.144446429118217,0.127382464183047,0.0278731346825277
0.00769068857531832,0.0538785978570628,0.057253030549538,0.0207024661134365,0.0235197435827778,0.151631469841622,0.135643418704839,0.0293394566410046
0.00732698584908178,0.0560455242596592,0.0540048558225175,0.0211211031572539,0.0247425886043608,0.158816297969427,0.143797417874691,0.030823427640067
0.00697921558773038,0.0581341874085937,0.0509564104209966,0.0215004940582595,0.0259383117549174,0.165928992753084,0.151748361971692,0.0323086457401541
0.00664978807334821,0.0601202049329157,0.0481232400493086,0.0218350546333528,0.0270919385759741,0.172898029871471,0.159400758507498,0.0337783381530044
0.00634096808835965,0.0619800892974196,0.0455174244975967,0.0221195635424265,0.0281888964319442,0.179653150862997,0.166661139871415,0.03521562239834
0.00605485995145249,0.0636916641865471,0.0431476134066747,0.0223492539850023,0.0292152880456539,0.186126216270913,0.173439486499825,0.0366037747444478
0.00579339058826644,0.0652344595332698,0.0410191170481536,0.0225199003107325,0.0301581585002863,0.192252030508904,0.179650624837819,0.0379264995845139
0.00555829057280813,0.0665900749044126,0.0391340450318004,0.0226278973993664,0.0310057484112157,0.197969129816169,0.185215570662425,0.0391681930527557
0.00535107346556987,0.0677425004107278,0.0374914856649432,0.0226703311021383,0.0317477256762477,0.203220528279725,0.190062792681967,0.0403141948311073
0.00517301408580749,0.0686783862216771,0.0360877178228155,0.0226450388495123,0.0323753890646205,0.207954419586455,0.19412937644549,0.0413510234408998
0.00502512645011131,0.0693872553258838,0.034916446112152,0.022550660223446,0.0328818385513552,0.212124832266878,0.197362071254937,0.0422665916819826
0.00490814200838539,0.0698616575355266,0.0339690503105928,0.0223866773925994,0.0332621088337285,0.215692231957568,0.199718200314592,0.0430503993854576
0.00482248873672604,0.0700972639509292,0.0332348419538129,0.0221534447607945,0.0335132629337945,0.218624056880915,0.201166409468367,0.043693699933615
0.00476827174225923,0.070092900087994,0.0327013237220114,0.0218522066917529,0.0336344424290717,0.220895168175624,0.201687230087814,0.0441896363173219
0.0047452562178992,0.0698505155724097,0.0323544498254145,0.0214851023884728,0.033626871348234,0.222488198714021,0.201273439675709,0.0445333433118091
0.00475285372010386,0.0693750907754336,0.0321788869324841,0.0210551577818023,0.0334938128784985,0.223393791352268,0.199930216007127,0.0447220145097534
0.00479011273682653,0.068674484902828,0.0321582749976976,0.020566265099224,0.0332404808996562,0.223610726627747,0.197675091383656,0.0447549353632866
0.00485571436190716,0.0677592336205857,0.0322754865629977,0.0200231511137503,0.0328739106541823,0.223145946801332,0.194537717600365,0.0446334848922249
0.00494797370039726,0.0666423054751901,0.0325128829703163,0.0194313347004446,0.032402793601953,0.222014484629776,0.190559448750762,0.0443611085873027
0.00506484748736863,0.0653388249834669,0.0328525664316086,0.018797073767452,0.0318372809854584,0.220239300113261,0.185792744942439,0.0439432636910589
0.00520394829443497,0.0638657686227066,0.0332766273831241,0.0181273015979974,0.0311887604248301,0.217851020134884,0.180300401868567,0.0433873370323816
0.00536256556856537,0.06224164002689,0.0337673865144526,0.0174295531628509,0.0304696107343336,0.214887571145255,0.174154618162242,0.0427025357973847
0.00553769355481023,0.0604861320998561,0.0343076302674014,0.0167118826193434,0.0296929415454668,0.211393696856328,0.167435920751092,0.0418997527444275
0.00572606590979349,0.0586197852415891,0.0348808377961017,0.0159827735527959,0.0288723254413398,0.207420360076399,0.160231974486355,0.0409914087783427
0.00592419658930628,0.0566636514216657,0.0354713968211984,0.0152510432869611,0.0280215306003488,0.203024037391246,0.152636303613871,0.0399912768304542
0.00612842643086374,0.0546389728636901,0.0360648056791712,0.0145257420701448,0.0271542612592319,0.198265923476467,0.144746948636983,0.0389142910720519
0.00633497472272871,0.052566881776283,0.0366478588552185,0.0138160477380099,0.0262839120639255,0.193211064491903,0.136665076367152,0.0377763444242966
0.00653999489734832,0.05046812497632,0.0372088127808119,0.0131311567075116,0.0254233412841753,0.187927435946862,0.12849355853849,0.0365940759086467
0.00673963326005326,0.0483628154527577,0.0377375277323537,0.0124801726057276,0.0245846670970382,0.182484974720899,0.120335536121173,0.035384648825739
0.00693008940988191,0.0462702120080769,0.0382255815328157,0.0118719941904452,0.0237790904590051,0.176954574162621,0.11229299020914,0.0341655213131197
0.00710767687351312,0.0442085277844102,0.0386663520549145,0.0113152042742354,0.0230167472849249,0.17140705560502,0.104465343504541,0.0329542120142156
0.00726888252659299,0.0421947684256093,0.0390550673464033,0.0108179610592662,0.0223065916766519,0.165912135858765,0.0969481170018906,0.0317680647234003
0.00741042356493795,0.0402446005127938,0.0393888230914968,0.0103878928457687,0.0216563108579521,0.160537415081068,0.0898316637417448,0.0306240163451188
0.00752930097467097,0.0383722503421048,0.0396665667778543,0.0100319968724218,0.0210722714038356,0.155347410940661,0.0831999968214247,0.029538371976244
0.00762284847334987,0.0365904317924422,0.0398890480145575,0.00975654318759565,0.0205594954366622,0.150402662648898,0.0771297248121393,0.0285265897141883
0.00768877573799671,0.0349103003662898,0.0400587358269458,0.00956698478437263,0.0201216647777033,0.145758922615396,0.0716891051170507,0.0276030768236535
0.00772520467385572,0.0333414295457105,0.0401797051990892,0.00946787555534599,0.0197611505623484,0.141466445778554,0.0669372238601391,0.0267809985840527
0.00773069773205845,0.0318918058144828,0.0402574952965597,0.00946279776996283,0.0194790653794447,0.137569379940468,0.0629233090527878,0.0260721012742114
0.00770427777567898,0.0305678396597232,0.040298941425315,0.00955430066068573,0.0192753343515989,0.134105256782126,0.0596861819985655,0.025486551060894
0.00764543949082176,0.0293743909283735,0.0403119836425307,0.00974385135264424,0.0191487808216376,0.131104582908867,0.0572538503884176,0.0250327908830708
0.00755415260369718,0.0283148074326235,0.0403054567766335,0.010031798974633,0.019097221990414,0.128590532491746,0.0556432454662311,0.0247174176572697
0.00743085710773406,0.0273909752843045,0.0402888677945894,0.0104173525489767,0.0191175702657722,0.126578746332541,0.05486010489298,0.0245450821266164
0.00727645057572391,0.0266033784662539,0.040272166104759,0.0108985731984151,0.0192059370326542,0.125077244654304,0.0548990021127683,0.0245184132368264
0.00709226774653908,0.0259511646482149,0.0402655116087927,0.0114723812199562,0.0193577365846951,0.124086461044254,0.0557435216107873,0.0246379680395864
0.00688005292663135,0.0254322146606342,0.0402790452597479,0.0121345784848141,0.0195677885435133,0.123599401975816,0.0573665772299174,0.0249022073572253
0.00664192614110169,0.0250432140515875,0.0403226668546439,0.0128798863080337,0.0198304169661762,0.123601930832406,0.0597308683895418,0.025307497379398
0.00638034421486788,0.0247797263186751,0.0404058239029385,0.0137019985179007,0.0201395440515128,0.124073169543764,0.0627894676378429,0.025848137970493
0.00609805794842196,0.0246362683100483,0.0405373142960406,0.014593649180178,0.0204887767646547,0.124986006544429,0.0664865325225149,0.0265164193314939
0.0057980663465445,0.024606388567573,0.040725105027454,0.0155466942757391,0.0208714858735155,0.126307696906757,0.0707581346674244,0.0273027092763809
0.00548356869669202,0.0246827488904257,0.0409761687811012,0.0165522063753915,0.0212808782957446,0.128000538972043,0.0755331985255949,0.0281955733410413
0.00515791528407325,0.0248572086158457,0.0412963391730516,0.0176005808769768,0.0217100646568602,0.130022611565159,0.0807345411560144,0.029181929124404
0.00482455760446388,0.025120910847078,0.0416901847460085,0.0186816519246316,0.0221521241204449,0.13232855686741,0.0862800025632722,0.0302472350051709
0.00448699899928356,0.0254643702538324,0.0421609024586935,0.0197848160722662,0.0226001679791749,0.1348703958522,0.0920836539590138,0.0313757120957352
0.00414874662130707,0.0258775627671822,0.0427102328444832,0.0208991620774764,0.0230474028738375,0.137598364987268,0.0980570690794398,0.0325505969728919
0.00381326551086602,0.0263500181006748,0.0433384000885757,0.0220136056504597,0.0234871942043339,0.140461763369498,0.104110641436036,0.0337544212188702
0.00348393536700993,0.0268709163187189,0.0440440801407851,0.023117028188006,0.023913130120598,0.143409797216541,0.110154927586774,0.0349693121803246
0.00316401044872351,0.0274291895835172,0.044824398604626,0.0241984182108743,0.0243190862126093,0.146392403805848,0.116101992678582,0.0361773078934571
0.00285658297813111,0.028013629780867,0.045674958507769,0.0252470134734714,0.0246992906287421,0.149361032882771,0.12186673078663,0.0373606781992706
0.0025645503891659,0.0286130019680305,0.0465898970793583,0.0262524411112023,0.0250483889633828,0.152269363681791,0.127368131442722,0.0385022439425744
0.00229058670936372,0.0292161624762793,0.0475619703783825,0.0272048531646025,0.0253615080060914,0.155073940372063,0.132530466264803,0.0395856867791539
0.0020371182535478,0.0298121792425891,0.0485826647400407,0.0280950553312489,0.025634317345249,0.157734716279956,0.137284374795009,0.0405958430915016
0.00180630368373183,0.0303904510952827,0.0496423342472588,0.0289146275968137,0.0258630876681796,0.16021550486377,0.141567833973722,0.0415189760898828
0.00160001840214483,0.030940822649052,0.0507303635325308,0.0296560361524613,0.0260447440734413,0.162484339784372,0.14532699782772,0.0423430197106725
0.00141984319005989,0.0314536921447076,0.0518353549323021,0.030312736354021,0.0261769118541515,0.164513745283476,0.148516891926174,0.043057787024669
0.00126705695125234,0.0319201106995563,0.0529453381276913,0.0308792661147424,0.0262579517673371,0.166280914003794,0.151101945777466,0.0436551362066406
0.00114263334953208,0.0323318725426091,0.0540479987237211,0.0313513281012841,0.026286982304802,0.167767788579636,0.153056350572951,0.0441290892611923
0.00104724106961035,0.0326815963701986,0.0551309199222505,0.0317258581417113,0.0262638877152824,0.168961047755014,0.154364238549335,0.0444759018413844
0.000981247411906908,0.032962797591307,0.0561818294868169,0.032001077052149,0.0261893119151626,0.169852004827811,0.155019689507514,0.0446940853042743
0.000944724950522977,0.0331699501261598,0.0571888435286546,0.0321765237188274,0.0260646393135139,0.1704364322535,0.155026575289948,0.0447843833677329
0.000937461011824727,0.0332985355044126,0.0581406994392952,0.032253068459294,0.0258919635204149,0.170714328170899,0.154398252068151,0.0447497051857417
0.000958969739290829,0.0333450769497305,0.0590269721238037,0.0322329069718157,0.0256740442355797,0.170689637170301,0.153157106463653,0.0445950160785037
0.0010085064909054,0.0333071568964352,0.0598382696662757,0.032119535989148,0.0254142523701342,0.170369931824817,0.151333961096007,0.0443271881060149
0.00108508429942667,0.0331834176329539,0.0605664055424908,0.0319177115907119,0.02511650406219,0.169766058694172,0.148967349592363,0.0439548148426349
0.00118749213780295,0.0329735460406889,0.0612045437150959,0.0316333901909776,0.0247851853159527,0.168891754133623,0.146102677724005,0.0434879969921113
0.00131431475988226,0.0326782441262409,0.0617473114686733,0.0312736516128454,0.0244250699621308,0.167763239164305,0.142791292642687,0.0429381068689264
0.00146395391094149,0.0322991867684757,0.0621908750242225,0.0308466040343336,0.0240412340653644,0.166398805791462,0.139089483213423,0.0423175396600267
0.001634650715982,0.0318389671697624,0.0625329755020036,0.0303612716836924,0.0236389695801032,0.164818406625962,0.135057430861954,0.0416394579457107
0.00182450905954787,0.0313010301258553,0.0627729265537377,0.0298274673788545,0.0232236991206869,0.163043254819173,0.130758126503751,0.0409175343149724
0.00203151977296194,0.0306895939217615,0.0629115782210082,0.0292556528251808,0.0228008927295718,0.161095436170362,0.126256269020072,0.0401656959264693
0.00225358543953731,0.0300095628852521,0.0629512527180465,0.0286567896007135,0.0223759869747328,0.158997534273469,0.121617163635204,0.0393978744729295
0.00248854560278858,0.0292664335482153,0.062895656624417,0.0280421829275809,0.0219543066203052,0.156772272537318,0.116905641621896,0.0386277649065833
0.00273420210205214,0.0284661973297296,0.0627497723421093,0.0274233193545892,0.0215409893504072,0.154442181020188,0.11218502352274,0.0378685962914123
0.00298834417100685,0.0276152418164111,0.0625197313542927,0.0268116992384856,0.0211409143927959,0.152029298188333,0.107516145350003,0.0371329181430298
0.00324877286250639,0.0267202521159272,0.0622126724719013,0.0262186655182362,0.0207586361518651,0.14955491577315,0.102956462335555,0.0364324054271874
0.0035133243499454,0.0257881138852735,0.0618365889351572,0.0256552312949955,0.0203983238645086,0.147039369319878,0.0985592407556614,0.0357776847408963
0.00377989171259282,0.0248258199758373,0.0614001684767266,0.0251319095579129,0.0200637077044629,0.144501871669761,0.0943728462636066,0.0351781829168625
0.00404644492509835,0.0238403825049282,0.0609126302755139,0.0246585484858363,0.0197580310226712,0.141960384444809,0.0904401362246132,0.0346419978875221
0.00431104889666071,0.0228387514032796,0.0603835623588535,0.0242441751151469,0.019484008142246,0.13943152324776,0.0867979628557003,0.034175791073254
0.00457187947630533,0.0218277397975895,0.0598227625017813,0.0238968496649778,0.019243787479794,0.136930494326611,0.0834767929677041,0.0337847010617536
0.00482723729795136,0.0208139565114735,0.0592400846884091,0.0236235330560075,0.0190389204567656,0.134471062576675,0.080500448472587,0.0334722794553592
0.00507555922274498,0.0198037462191975,0.0586452913130642,0.0234299708206164,0.018870337281988,0.132065551870344,0.0778859693364375,0.0332404507687605
0.00531542709832254,0.0188031377955109,0.05804790923684,0.0233205970416914,0.0187383308544795,0.129724877841738,0.075643597183989,0.0330894984973503
0.00554557367450366,0.0178178008894741,0.0574570874220091,0.0232984617139297,0.0186425496061694,0.12745860968337,0.0737768736882511,0.0330180786805302
0.00576488574526588,0.0168530101365386,0.0568814558234481,0.023365184066286,0.0185819994207946,0.125275052151656,0.0722828444849945,0.0330232610218719
0.00597240481677204,0.0159136163126193,0.0563289885941738,0.0235209334766257,0.0185550543820039,0.123181335218452,0.0711523576173145,0.0331005967662258
0.00616732569805929,0.0150040240859228,0.0558068777635199,0.0237644388883716,0.0185594761530076,0.121183498994924,0.0703704454436988,0.0332442121933077
0.00634899332148642,0.0141281764199072,0.0553214247466767,0.0240930269021009,0.0185924421035841,0.119286565296638,0.0699167800297607,0.0334469264484986
0.00651689798741919,0.0132895457311058,0.0548779559905501,0.024502687822113,0.0186505826677291,0.117494592806599,0.0697661935535885,0.0337003922659111
0.00667066927644755,0.012491131517055,0.0544807673799554,0.024988167971464,0.0187300286307814,0.115810718088486,0.06988925635716,0.0339952578861768
0.00681006902654023,0.0117354637589377,0.0541331009758469,0.0255430857627347,0.018826468922457,0.114237187664276,0.0702529051896101,0.0343213481548361
0.00693498384428449,0.011024611372413,0.0538371565373636,0.0261600684984821,0.0189352189361639,0.112775385639942,0.0708211124367328,0.0346678623898399
0.00704541749918248,0.0103601952366793,0.0535941382490623,0.0268309066445742,0.0190512985955556,0.111425857607699,0.0715555843197665,0.0350235859811574
0.00714148337672643,0.00974340558705295,0.0534043344413897,0.02754672208255,0.019169518760675,0.110188328260496,0.0724164739536372,0.0353771116019158
0.00722339711818389,0.00917502357992326,0.0532672254325791,0.0282981462259818,0.0192845742737427,0.109061709971473,0.0733630948612031,0.0357170644781293
0.00729146958017176,0.00865544655944571,0.0531816122238974,0.0290755030016752,0.0193911418931434,0.108044102211487,0.0743546219401996,0.0360323251595516
0.007346100134457,0.00818471615614408,0.0531457575957036,0.0298689913398901,0.0194839814221808,0.107132785631797,0.0753507694256993,0.0363122432793334
0.00738777011474742,0.00776254811322497,0.0531575317777709,0.0306688624046472,0.0195580384091983,0.106324218352901,0.0763124383064024,0.0365468368339926
0.00741703612612174,0.00738836274433662,0.0532145567611893,0.0314655880119128,0.0196085468126342,0.105614044160636,0.0772023279982947,0.03672697311372
0.0074345230442737,0.00706131510578314,0.0533143453561572,0.0322500178830022,0.019631129931774,0.104997122146085,0.0779855078878058,0.0368445289363376
0.0074409167153175,0.00678032421598791,0.0534544321717807,0.0330135238657655,0.0196218976184075,0.104467584694697,0.0786299430007388,0.0368925286126607
0.007436956444171,0.00654410085540263,0.0536324931359593,0.0337481287306578,0.019577537200703,0.104018926075013,0.0791069653760014,0.0368652576653053
0.00742342722639241,0.00635117350773679,0.0538464483232894,0.0344466164187335,0.0194953947620626,0.103644118410171,0.0793916811156052,0.036758349297526
0.00740115145694373,0.0061999118507668,0.0540945412965742,0.0351026208540923,0.0193735429250933,0.103335747163301,0.0794633038273369,0.0365688403959895
0.00737097979618593,0.00608854711670014,0.054375388221105,0.0357106917676742,0.0192108315290706,0.103086155478993,0.0793054078682213,0.03629519505518
0.00733378105448188,0.00601518884301666,0.0546879919303707,0.0362663377748982,0.0190069185719587,0.102887586315347,0.0789060984733449,0.035937295761258
0.00729043126005,0.00597783797740713,0.0550317195311034,0.0367660483475348,0.0187622802050947,0.102732313402858,0.0782580994416185,0.0354964046380175
0.00724180234438727,0.00597439679555613,0.055406246105347,0.0372072965709077,0.0184781998826172,0.102612756106159,0.0773587614958904,0.0349750987093023
0.00718875097290811,0.00600267643690424,0.0558114701923699,0.0375885237552856,0.0181567373981486,0.102521577822883,0.0762099948051363,0.0343771833936095
0.00713210790773064,0.00606040293382199,0.0562474076977761,0.0379091063904602,0.0178006784144954,0.10245177065717,0.0748181272721558,0.0337075875210295
0.00707266806934876,0.00614522247905528,0.0567140699322512,0.0381693065080141,0.0174134650808858,0.102396729029171,0.0731936880336409,0.0329722421586098
0.00701118140492958,0.00625470659665727,0.057211330973421,0.038370207841499,0.0169991091300648,0.102350311980064,0.0713511158582178,0.0321779453877455
0.00694834480014129,0.00638635795049279,0.0577387907624733,0.0385136413377031,0.0165620901639952,0.102306891521333,0.0693083951634867,0.0313322157824971
0.00688479544474056,0.00653761763567773,0.0582956423529969,0.0386021037419032,0.01610724303327,0.10226138476196,0.0670866268997514,0.0304431381790951
0.00682110610678284,0.00670587481763262,0.058880553137164,0.0386386720066235,0.0156396388027697,0.102209270057044,0.0647095457655885,0.0295192059671337
0.00675778261019758,0.00688847943429826,0.0594915698486317,0.0386269152069107,0.0151644636283385,0.102146590519468,0.0622029974774865,0.0285691643273053
0.0066952635874205,0.00708275840046871,0.0601260555880393,0.0385708054675775,0.0146868992609813,0.102069950705234,0.05959438933236,0.0276018585346075
0.00663392245095778,0.00728603546925332,0.0607806645121547,0.0384746298764283,0.0142120083427228,0.101976513443829,0.056912125330101,0.026626090690135
0.00657407142387317,0.00749565463690323,0.0614513568798805,0.0383429056573979,0.0137446272787453,0.10186400335333,0.054185036111728,0.0256504870978266
0.00651596727361329,0.00770900666665436,0.0621334544267893,0.0381803003098798,0.013289269127876,0.10173072140373,0.0514418145471461,0.0246833771267596
0.00645981820190653,0.00792355799213372,0.0628217336757844,0.037991557163556,0.0128500385702917,0.101575570958287,0.0487104690200199,0.0237326832521966
0.00640579132870541,0.00813688106526084,0.0635105524032036,0.0377814260090992,0.0124305606057465,0.10139809094147,0.0460178072567599,0.0228058214627924
0.00635402033596563,0.00834668518025276,0.0641940017339852,0.0375545986629899,0.0120339242591486,0.10119848810929,0.0433889632514993,0.0219096114045267
0.00630461293104413,0.00855084687285589,0.0648660740346693,0.0373156499044773,0.0116626422419582,0.100977659034053,0.0408469782794337,0.0210501963032894
0.00625765771237618,0.00874743904026083,0.0655208361850629,0.037068984260332,0.0113186272014466,0.100737193420144,0.0384124446268482,0.0202329735296314
0.00621322987143864,0.00893475781685904,0.0661525991768292,0.0368187882132274,0.0110031848224436,0.100479353274181,0.0361032182211045,0.019462537251035
0.00617139519469008,0.00911134598471788,0.0667560775482593,0.0365689864973171,0.0107170235828645,0.100207026340565,0.0339342040063072,0.0187426346324831
0.00613221208872336,0.00927601156396533,0.0673265345518902,0.036323201330958,0.0104602804001778,0.0999236556426296,0.0319172156532679,0.0180761364670681
0.00609573171223054,0.00942784042482886,0.0678599096527124,0.0360847145491302,0.0102325607752532,0.0996331481830315,0.0300609091865292,0.0174650224617754
0.00606199660148914,0.00956620223811239,0.0683529236481976,0.0358564337163876,0.0100329914203413,0.099339764028136,0.0283707883053995,0.0169103811902733
0.0060310382973097,0.00969074964457469,0.0688031556026228,0.0356408635100316,0.00986028284001929,0.0990479845868865,0.0268492774254757,0.0164124249024143
0.00600287437924801,0.00980141094301173,0.0692090870170445,0.0354400828169494,0.0097127989951241,0.0987623595208898,0.0254958570332334,0.0159705196257939
0.00597750511243815,0.00989837667846785,0.0695701118384351,0.035255727238091,0.00958863109032275,0.0984873356842461,0.024307255172741,0.0155832310225298
0.00595490981616289,0.00998208030243603,0.0698865145432002,0.0350889769995997,0.00948567271150823,0.0982270767014826,0.0232776887231015,0.0152483861498472
0.00593504312376976,0.0100531729598264,0.0701594211388737,0.0349405513120127,0.00940169392171888,0.0979852857885644,0.0223991482502728,0.0149631506811475
0.00591783145422476,0.0101124926944317,0.0703907284501277,0.0348107111749151,0.00933441230037479,0.0977650453145323,0.021661720214728,0.0147241204558274
0.0059031701711935,0.0101610288663978,0.0705830153315312,0.0346992727603827,0.00928155903100291,0.0975686841288315,0.0210539398557591,0.0145274256017828
0.00589092199185725,0.0101998831181058,0.0707394370692761,0.0346056326105869,0.00924093801839703,0.0973976801876691,0.0205631671746006,0.0143688449522734
0.00588091717413058,0.0102302285831154,0.0708636033359996,0.034528804722537,0.00921047609991939,0.0972526039392121,0.0201759775791687,0.0142439279596779
0.00587295583883698,0.010253269046051,0.0709594411717765,0.0344674690783211,0.00918826300025409,0.097133107123034,0.0198785582451895,0.0141481206841807
0.00586681251513737,0.0102701994727031,0.071031046953011,0.0344200312382388,0.00917258057658301,0.0970379608900535,0.019657100939127,0.0140768918473535
0.00586224274208382,0.0102821690597123,0.0710825340986531,0.0343846926364472,0.00916192172245564,0.0969651455476156,0.0194981816665026,0.0140258546805208
0.00585899138549923,0.0102902479273673,0.0711178849627239,0.0343595306481191,0.00915499969646673,0.0969119913781284,0.0193891168614752,0.0139908804137916
0.00585680222554651,0.010295398717639,0.071140814845527,0.0343425861849192,0.00915074859686229,0.0968753658407835,0.0193182848989813,0.0139681995453912
0.00585542829625022,0.0102984544752072,0.0711546541008779,0.0343319550162841,0.00914831565576506,0.0968518973267862,0.0192754006836564,0.0139544872070204
0.00585464236872785,0.0103001041181682,0.0711622534368124,0.0343258777068878,0.00914704627714267,0.0968382201856262,0.0192517300937845,0.0139469287556414
0.00585424682225042,0.0103008864802232,0.0711659183951348,0.0343228218957841,0.00914646313515033,0.0968312206266165,0.0192402300577232,0.0139432612425975
0.00585408191435163,0.0103011934424804,0.0711673801962908,0.0343215493031559,0.00914624091686532,0.0968282583951537,0.0192355989756295,0.0139417860165773
0.00585403116687344,0.0103012822610633,0.0711678100294481,0.0343211581724946,0.00914617826896931,0.0968273345834762,0.0192342211687734,0.0139413475472831
