APL,FCR,FDS,FDP,ED,EI,ECU,ECR
0.00841146940312755,-0.00133868562592349,0.205820029096945,0.0211066898328344,0.0699385873590761,0.202818780800042,0.0743341131654291,0.0365980087140181
0.00912245723189482,0.00385046585899923,0.215533897275949,0.0251894736108454,0.0851629259141354,0.207461015660842,0.0743406828652261,0.0384346072579393
0.00981007723694545,0.00882127838889569,0.224083186835894,0.0291402565691602,0.100147840335158,0.211486557915584,0.074192882966545,0.0401049573606318
0.010469090684553,0.0135338516504611,0.231380815421296,0.0329309430040948,0.114774223297168,0.214835079382493,0.0738838492175938,0.0415913857271471
0.0110946000660827,0.0179515733101076,0.237357138007811,0.0365356659918059,0.128925709489636,0.217453914610679,0.0734089454624995,0.0428784362657634
0.0116821157644308,0.0220416918385815,0.241961283931243,0.0399311612495351,0.142490374264903,0.219299141254868,0.0727660127667794,0.0439531258463952
0.0122276102070123,0.0257757873802858,0.245161996427348,0.0430970625045724,0.15536232858995,0.220336478956586,0.0719555821256609,0.0448051348305282
0.0127275592728896,0.029130133784353,0.246947966765559,0.0460161161221185,0.16744318300903,0.220541981241172,0.0709810415677427,0.0454269292416978
0.0131789719480177,0.032085951841399,0.247327694181409,0.0486743194236213,0.178643365075091,0.219902510885312,0.0698487513730925,0.0458138170594043
0.013579409963525,0.0346295577784188,0.24632892869749,0.0510609911831424,0.188883283151034,0.21841600268929,0.0685681042320272,0.0459639451745996
0.0139269993624996,0.0367524122297296,0.243997762692953,0.0531687838222,0.198094332587641,0.216091525209188,0.0671515296330308,0.0458782452842708
0.0142204357412251,0.0384510754915734,0.240397432743665,0.0549936455273916,0.206219737312652,0.212949152842095,0.0656144428787559,0.0455603364799559
0.0144589844725539,0.0397270766902508,0.235606886607043,0.0565347383602266,0.213215213323299,0.209019653320183,0.0639751383596427,0.0450163906682897
0.0146424766629114,0.0405867071531944,0.229719167173828,0.0577943165506714,0.219049436176735,0.204343990464714,0.062254624467837,0.0442549657850562
0.0147713009456819,0.0410407506744068,0.22283966329635,0.0587775679565089,0.22370429577688,0.198972643981535,0.0604763958767156,0.0432868114551815
0.0148463905233649,0.0411041646894554,0.215084273311214,0.0594924214196799,0.227174928420901,0.192964756528497,0.0586661396066682,0.0421246520094166
0.0148692043861684,0.0407957262574304,0.206577519987252,0.0599493236462579,0.229469526158792,0.186387129098512,0.0568513743684843,0.0407829522755044
0.0148417016092887,0.0401376553484947,0.197450647041352,0.0601609909880197,0.230608933538421,0.17931309381793,0.0550610271270472,0.0392776720800572
0.0147663081066852,0.0391552260095631,0.187839719697384,0.0601421432293366,0.230626047236476,0.17182129451076,0.0533249550807817,0.0376260157259942
0.0146458760307319,0.0378763742669492,0.177883746863202,0.059909227008957,0.229565031900836,0.163994400785337,0.0516734235502088,0.0358461826586802
0.0144836368359167,0.0363313102142475,0.167722840811669,0.0594801352595896,0.227480360296737,0.155917778006667,0.0501365500986961,0.0339571249180984
0.0142831495007037,0.0345521404601724,0.157496430799571,0.0588739273445976,0.224435686997936,0.147678137202471,0.0487437248366532,0.0319783156864415
0.0140482453073387,0.0325725058890159,0.147341547970732,0.0581105542698819,0.220502574448941,0.139362193011431,0.0475230184615353,0.0299295315210372
0.0137829701805216,0.0304272385092851,0.137391198009184,0.0572105944013397,0.215759103060654,0.131055360098023,0.0465005923915369,0.0278306493944757
0.0134915254179083,0.0281520400357818,0.127772833874774,0.056195006277098,0.210288406267732,0.122840516493756,0.0457001274734482,0.0257014588627927
0.0131782077973364,0.025783183725143,0.118606935196882,0.0550849051667569,0.204177172346985,0.114796856902819,0.0451422879587531,0.0235614894551777
0.0128473502676189,0.0233572397712759,0.110005697971952,0.0539013684871727,0.197514149072635,0.106998853811504,0.044844235952113,0.0214298534796572
0.0125032645177937,0.0209108231831135,0.102071839773532,0.0526652727834268,0.190388682940497,0.0995153409947421,0.0448192096364213,0.0193251046262102
0.012150186622125,0.0184803616535856,0.0948975297926869,0.051397163014223,0.182889324870576,0.0924087316896962,0.0450761767944543,0.0172651128168232
0.0117922267394722,0.0161018798823395,0.0885634567985957,0.0501171536129863,0.175102535438805,0.0857343811933395,0.045619573067029,0.0152669555533293
0.0114333236007569,0.0138107963553535,0.0831380492567139,0.0488448598409764,0.167111520743025,0.079540100548541,0.0464491319040325,0.0133468254786555
0.0110772042990586,0.011641728646952,0.0786768596389817,0.0475993570364776,0.158995223576734,0.07386582439419,0.0475598105692954,0.0115199530665417
0.0107273496780275,0.00962830370008443,0.0752221208039074,0.046399164417595,0.150827485962265,0.0687434321590965,0.0489418141577101,0.00980054261077548
0.0103869653062259,0.00780297000511222,0.0728024781145382,0.0452622490379002,0.142676390954394,0.0641967176432281,0.050580717485561,0.00820171933248748
0.010058957585621,0.00619680886653366,0.0714328969019146,0.044206044079793,0.134603783680207,0.0602414977881264,0.052457682599875,0.00673548550644968
0.00974591417052074,0.00483934188866302,0.0711147411547218,0.0432474738013095,0.126664964168131,0.0568858477676131,0.0545497673491413,0.00541268387141044
0.00945008784213455,0.00375833175451702,0.0718360167443528,0.0424029760044579,0.118908539668748,0.054130447179576,0.0568303184000085,0.0042429669981949
0.00917338332481268,0.00297957387166512,0.0735717709728125,0.0416885130360153,0.111376421831791,0.0519690213087516,0.0592694402569899,0.00323477150456165
0.00891734707371583,0.00252667762140543,0.0762846388539132,0.0411195641179749,0.104103951932246,0.0503888620152863,0.0618345297174912,0.00239529597854922
0.0086831605598498,0.00242083750221535,0.079925524361956,0.0407110943005352,0.0971201336454747,0.0493714143030684,0.0644908632674435,0.00173048147432233
0.00847163779250253,0.00268059603671405,0.0844344019999227,0.0404774971835292,0.0904479499606895,0.0488929160993424,0.067202224289289,0.0012449936586245
0.00828322767750845,0.00332160157449917,0.0897412221266082,0.0404325087951872,0.0841047420675264,0.0489250790864191,0.0699315574493527,0.000942205942066757
0.00811802154259804,0.00435636485912938,0.0957669037385671,0.040589089524386,0.0781026328075525,0.0494357973976717,0.0726416379237206,0.000824183076857661
0.00797576603178762,0.00579401855891252,0.102424400517714,0.0409592719324283,0.0724489822754657,0.0503898703717282,0.0752957419655865,0.000891664900478882
0.00785588154361827,0.00764008438862477,0.109619828942926,0.0415539751362673,0.0671468652783392,0.0517497266200627,0.0778583035053717,0.00114405030900929
0.00775748630996134,0.00989625325793247,0.117253649995539,0.0423827900726159,0.0621955593528889,0.0534761385016285,0.0802955414344318,0.00157938200987342
0.00767942600404931,0.012560184929188,0.125221897345572,0.0434537427574879,0.057591031467161,0.0555289169957952,0.0825760446509749,0.00219433291906016
0.00762030845384393,0.0156253346748739,0.133417443834736,0.0447730435193467,0.0533264137719393,0.0578675762304094,0.0846713054953865,0.002984195268224
0.00757854271433892,0.0190808151422011,0.141731294329876,0.0463448294692543,0.0493924625973494,0.0604519561205974,0.0865561947713965,0.00394287378908383
0.00755238152300172,0.0229113018986131,0.150053888766235,0.0481709070722849,0.0457779982472537,0.0632427919170473,0.0882093714340924,0.00506288472980642
0.00753996607968303,0.0270969908982027,0.158276397404267,0.0502505025339037,0.0424703246303601,0.0662022196885021,0.0896136181049001,0.00633536272042469
0.00753937212839592,0.0316136154162619,0.166291991723339,0.0525800291831886,0.0394556271005836,0.0692942060416207,0.090756093311449,0.00775007756158643
0.00754865636688625,0.0364325289339373,0.173997077945443,0.0551528822135942,0.0367193453615505,0.072484891072742,0.0916284942984139,0.00929546303438463
0.00756590213221922,0.0415208591122016,0.181292484090901,0.0579592713726416,0.0342465177002583,0.0757428376207002,0.0922271291699807,0.0109586599053991
0.00758926309921553,0.0468417364510245,0.188084593465762,0.0609861011323681,0.0320220934835248,0.0790391856569553,0.0925529018712778,0.0127255752764321
0.00761700362968357,0.0523545995233057,0.194286415462596,0.0642169056880999,0.030031212176819,0.0823477145987844,0.0926112159826481,0.0145809601861634
0.00764753461300058,0.058015576777813,0.199818578751921,0.0676318438068927,0.0282594484610149,0.085644817010853,0.0924118023896662,0.0165085070444312
0.0076794440683049,0.0637779427065806,0.204610227183336,0.0712077570185964,0.0266930237547862,0.0889093882196131,0.0919684734637227,0.0184909682083425
0.00771152223584216,0.0695926435789475,0.208599799473042,0.0749182939310955,0.0253189842312324,0.0921226410708486,0.0912988060123429,0.020510296695173
0.00774278116148359,0.0754088852371413,0.211735679732174,0.0787341029885644,0.0241253445799797,0.0952678614972131,0.090423757809457,0.0225478094898759
0.00777246875380993,0.0811747732030689,0.213976713834921,0.0826230949476373,0.023101196425582,0.0983301248798061,0.0893672265207522,0.0245843730627704
0.0078000770992827,0.0868379939402181,0.215292592082634,0.0865507740152865,0.0222367810258631,0.101295993223792,0.0881555634779077,0.0266006096442977
0.00782534477475931,0.0923465255876833,0.215664097783772,0.0904806334047733,0.021523527243341,0.104153210766137,0.0868170565444686,0.0285771216755264
0.00784825310894076,0.0976493664934994,0.215083215682237,0.0943746085991766,0.0209540571081148,0.106890413936904,0.0853813953953848,0.0304947308908009
0.00786901670159538,0.102697269672651,0.213553091476379,0.098193580492263,0.0205221619422301,0.109496870263259,0.0838791294334075,0.0323347278323197
0.0078880688489283,0.10744346985272,0.211087838246411,0.101897920014318,0.0202227517834208,0.111962257927807,0.0823411257046308,0.0340791271143436
0.0079060427034223,0.11184438655894,0.207712194801462,0.105448064496833,0.0200517803668288,0.11427649357406,0.0807980333877241,0.0357109230673807
0.00792374893033137,0.115860283519004,0.203461049792226,0.108805112975144,0.0200061480189654,0.116429612741886,0.0792797625228304,0.0372143392854691
0.00794215035867469,0.119455864287548,0.198378849235367,0.111931424217607,0.0200835854945783,0.118411705160297,0.0778149865991139,0.0385750646953921
0.00796233389164395,0.122600787115509,0.192518901777401,0.114791200240049,0.0202825225935365,0.120212904200785,0.0764306802464444,0.0397804689283742
0.00798547992106792,0.125270087471268,0.185942589786536,0.117351040048358,0.020601945905887,0.121823425618003,0.0751517034183404,0.0408197910578869
0.00801282967571857,0.127444501777745,0.178718492351738,0.1195804516159,0.0210412499963645,0.123233647970876,0.0740004415174272,0.0416842974962171
0.00804565121756162,0.129110687905535,0.170921429863999,0.121452311772505,0.0216000857205356,0.124434227873825,0.0729965080418079,0.0423674059554576
0.0080852050249033,0.13026133609645,0.162631445949362,0.122943262068101,0.0222782083934196,0.125416246287109,0.0721565145382953,0.042864772149908
0.00813271010674114,0.130895162975407,0.153932747508877,0.124034026909056,0.023075327585531,0.126171384638209,0.0714939120971209,0.0431743353405185
0.00818931138821234,0.131016785595947,0.144912624700769,0.124709643019612,0.023990959609546,0.126692129068218,0.0710189079695124,0.0432963197505421
0.00825604895815758,0.130636480811188,0.135660368901123,0.124959596393041,0.0250242833630038,0.126971997289236,0.0707384589340238,0.043233191468118
0.00833382982073034,0.129769843432196,0.126266200944354,0.124777870709865,0.0261740001888038,0.127005778748111,0.0706563399884644,0.0429895734085444
0.00842340289488205,0.128437360492511,0.116820219110254,0.124162915587935,0.027438198805463,0.126789777663787,0.0707732840236696,0.0425721227132922
0.00852533794671963,0.126663917333015,0.107411377307813,0.123117542219171,0.0288142269343169,0.126322049582146,0.071087185351402,0.0419893748761074
0.00864000888535638,0.124478248355586,0.0981265063770388,0.121648751650692,0.030298571567581,0.125602624117671,0.0715933570157091,0.04125155811272
0.00876758161806517,0.121912345577447,0.0890493926562574,0.11976750216278,0.0318867494506815,0.1246337085858,0.0722848299472426,0.0403703818499885
0.00890800657108246,0.119000840934492,0.0802599262386309,0.117488426727404,0.0335732086105068,0.123419868393951,0.0731526820471232,0.0393588046939256
0.00906101592379353,0.115780380966289,0.0718333275256122,0.114829516442575,0.0353512416557012,0.12196817913829,0.0741863862413578,0.0382307886914697
0.00922612541681652,0.112289012992948,0.0638394576619078,0.111811788558331,0.0372129124382963,0.120288341838528,0.0753741666533146,0.0370010470833685
0.00940264027340078,0.108565599254067,0.0563422170921314,0.108458956966929,0.0391489989867165,0.118392749521709,0.0767033504288516,0.03568479180992
0.00958966454211139,0.10464927049595,0.0493990353961356,0.10479711902194,0.0411489566602145,0.116296494331897,0.0781607012913942,0.0342974857936383
0.00978611319359398,0.100578925637915,0.0430604535277135,0.100854467073851,0.0432009056110848,0.114017309558976,0.0797327220508778,0.0328546045297057
0.00999072652816575,0.0963927811162996,0.0373697971139556,0.0966610283404483,0.0452916456347875,0.11157544771006,0.0814059169537215,0.0313714115950415
0.010202086697974,0.0921279721233359,0.0323629380399241,0.0922484333462655,0.0474066998773518,0.108993500732024,0.0831670092028792,0.0298627526366171
0.0104186362126894,0.0878202074392872,0.0280681412823709,0.0876497110048488,0.0495303876260645,0.106296169372257,0.0850031120719948,0.0283428716887235
0.0106386980818606,0.0835034790122291,0.0245059939413714,0.082899107352615,0.0516459258932161,0.103509985820576,0.0869018522033812,0.0268252524085436
0.010860496961913,0.0792098259415989,0.0216894128585873,0.0780319248351656,0.053735559541377,0.100662991124908,0.0888514418444339,0.025322485781276
0.0110821806457688,0.0749691495239435,0.0196237261755916,0.0730843795331563,0.0557807200009714,0.0977843693478287,0.0908406965016708,0.0238461654028562
0.0113018414988828,0.0708090726148317,0.0183068236127793,0.0680934740896852,0.0577622128606037,0.0949040435784683,0.0928589975564664,0.0224068112618735
0.0115175378397191,0.0667548350348695,0.017729370599558,0.0630968834228892,0.0596604343766223,0.0920522431552145,0.0948962046039133,0.0210138225206276
0.0117273155689273,0.0628292178446881,0.0178750823334937,0.0581328480940821,0.0614556158338017,0.0892590551856853,0.0969425273008935,0.0196754589283936
0.0119292303726515,0.0590524920305997,0.0187210549583958,0.0532400677986423,0.0631280925311068,0.0865539752213885,0.0989883689310297,0.0183988495600997
0.0121213705248989,0.0554423897671873,0.0202381520188935,0.0484575869747172,0.0646585917264241,0.0839654708383602,0.101024152686735,0.017190026974643
0.0123018799882495,0.0520140972797905,0.0223914449404019,0.0438246662522448,0.0660285323854813,0.0815205686669147,0.103040139144717,0.016053984454227
0.012468981478882,0.0487802672534888,0.0251407063184901,0.0393806362433633,0.0672203294377418,0.0792444727276494,0.105026242837063,0.0149947533748235
0.0126209993891119,0.0457510480550283,0.0284409542215132,0.0351647325788591,0.0682176960895728,0.0771602211762043,0.106971857356861,0.0140154970665703
0.0127563827111503,0.0429341284335324,0.0322430446990701,0.0312159119873287,0.0690059389233043,0.0752883890918342,0.108865700480783,0.0131186171459019
0.0128737281176472,0.0403347989405372,0.0364943084975442,0.0275726485350232,0.0695722412314307,0.0736468457012704,0.11069569189517,0.0123058682107922
0.0129718030301151,0.0379560334597713,0.0411392266170093,0.0242727084558882,0.0699059295184491,0.0722505746055791,0.112448875449946,0.0115784766209134
0.0130495681294795,0.0357985949809096,0.0461201378524088,0.0213529025401887,0.0699987160483658,0.0711115647137658,0.114111395170931,0.0109372587439774
0.0131061986810059,0.0338611689789411,0.0513779700793561,0.0188488162879023,0.0698449080231134,0.0702387775489976,0.115668529689331,0.0103827340145118
0.0131411042359209,0.0321405259786787,0.0568529857496939,0.0167945188605136,0.0694415735631435,0.0696381935373887,0.117104784312264,0.00991522875554192
0.01315394649578,0.0306317127338603,0.0624855304774724,0.0152222517929159,0.068788656723683,0.0693129362067293,0.118404035611832,0.00953496771829152
0.0131446551266338,0.0293282693249846,0.0682167718075377,0.0141620982236664,0.0678890373991589,0.0692634694260455,0.119549721427703,0.00924215122333378
0.0131134409765165,0.0282224675082376,0.0739894145364491,0.013641633913492,0.0667485354280686,0.0694878593883212,0.120525069573978,0.00903701623833685
0.0130608057524468,0.0273055640216624,0.0797483803387611,0.0136855622136179,0.0653758596351369,0.0699820902226096,0.121313360406363,0.00891987969513696
0.012987547160253,0.0265680615622208,0.0854414425773711,0.0143153356622725,0.0637825016669187,0.0707404196971182,0.121898220092836,0.00889116234614874
0.0128947588554711,0.025999969906611,0.0910198105324235,0.0155487669553609,0.0619825741267803,0.0717557588106836,0.122263941004567,0.0089513918844795
0.012783825076804,0.0255910600732491,0.0964386588865238,0.0173996325706111,0.0599925949734441,0.0730200562574051,0.122395822285439,0.00910118485362312
0.0126564102349583,0.025331105321662,0.101657597036951,0.0198772739224691,0.0578312243779798,0.0745246674606782,0.122280519849149,0.00934120787133916
0.0125144437500761,0.0252101039353148,0.1066410703057,0.0229862032413973,0.0555189638683327,0.0762606894116746,0.121906394294968,0.00967211970587838
0.0123601000998861,0.0252184798704344,0.111358684233808,0.0267257236487464,0.0530778287748624,0.0782192466144928,0.121263847872047,0.0100944965658166
0.0121957738048292,0.0253472581135177,0.115785444498669,0.0310895743564771,0.050531003847199,0.0803917187168901,0.120345645746235,0.0106087433851227
0.0120240492449851,0.0255882115952263,0.119901907776811,0.0360656121591032,0.0479024907422082,0.0827699050529479,0.119147219966433,0.0112149938517086
0.0118476656665543,0.0259339759855718,0.123694242268218,0.0416355400151658,0.0452167562084431,0.0853461234634019,0.117666954564681,0.011913001803295
0.0116694782432362,0.0263781287685018,0.127154199757932,0.0477746936255427,0.0424983904722913,0.088113239944368,0.115906446818051,0.0127020268139716
0.0114924163780356,0.0269152303223706,0.130279002766733,0.0544518976851208,0.0397717855654774,0.0910646249448185,0.113870735816266,0.013580717307487
0.0113194404045418,0.0275408269191506,0.133071149059898,0.0616294043956397,0.0370608426585438,0.0941940349466841,0.111568488272323,0.0145469951324991
0.0111534974917884,0.0282514177289532,0.135538132225258,0.0692629272885605,0.0343887159132096,0.0974954241766606,0.109012133053585,0.015597946008492
0.0109974771868568,0.0290443891784684,0.13769207562336,0.0773017829612091,0.0317775982496717,0.100962698488136,0.106217938862613,0.0167297204565782
0.0108541669485605,0.0299179199889553,0.139549280695933,0.0856891517321932,0.0292485521409251,0.10458942874487,0.103206032528109,0.0179374496860141
0.0107262082331975,0.0308708597818697,0.141129697970298,0.094362465469261,0.0268213864263723,0.108368542322114,0.100000357260448,0.019215180397295
0.0106160540262865,0.0319025844551025,0.14245633642315,0.103253927163447,0.0245145783319818,0.112292008951287,0.0966285698217236,0.0205558317333843
0.0105259289729454,0.0330128325000897,0.143554630202724,0.112291162563107,0.0223452384416432,0.116350534404362,0.0931218726401934,0.0219511769532422
0.0104577932667614,0.0342015271563095,0.14445177974031,0.121397999585262,0.0203291152991327,0.120533274677508,0.0895147740830096,0.023391851948982
0.0104133111621033,0.03546858907316,0.145176081286549,0.130495366206697,0.0184806355981548,0.124827583779104,0.0858447706147567,0.0248673923973818
0.0103938245932285,0.0368137434219326,0.145756259351278,0.139502291924101,0.0168129754537828,0.129218808775292,0.0821519486169591,0.026366300936541
0.0104003321904918,0.0382363254011697,0.146220819185065,0.148336992400322,0.0153381579228588,0.133690145591367,0.0784785094134617,0.0278761450613153
0.0104334740014998,0.0397350889405319,0.146597437557294,0.156918013147144,0.0140671716265286,0.138222567645187,0.0748682262665861,0.0293836853951753
0.0104935223363658,0.0413080241792087,0.146912407217177,0.165165406962031,0.0130101049200022,0.142794836128208,0.0713658447876517,0.0308750329831763
0.0105803792446561,0.0429521890390873,0.147190145305327,0.173001921049828,0.0121762894845127,0.147383595401255,0.068016437580833,0.0323358335653425
0.0106935811020659,0.0446635591894749,0.147452772505674,0.18035417173119,0.0115744465433355,0.151963550982115,0.0648647220237539,0.0337514762913673
0.0108323105619813,0.0464369002668817,0.147719768041079,0.187153784714215,0.011212828438778,0.156507723557307,0.0619543500940068,0.0351073236464427
0.0109954157146297,0.0482656668027786,0.14800770295833,0.193338475069767,0.0110993483683793,0.1609877712981,0.0593271816585164,0.036388958191937
0.0111814358867017,0.050141933211126,0.148330049152989,0.19885303598002,0.0112416917251865,0.165374373716821,0.0570225562301187,0.0375824404021783
0.0113886333138064,0.0520563625412075,0.148697057165614,0.203650204964785,0.011647403540432,0.169637671727599,0.0550765811869048,0.0386745711127296
0.0116150299307764,0.0539982180072185,0.149115695269867,0.207691382415743,0.0123239476121095,0.173747758405197,0.0535214555748346,0.0396531521183492
0.0118584486388402,0.0559554205581156,0.149589645157437,0.210947187184318,0.0132787335644007,0.177675211358779,0.0523848475053448,0.0405072389969559
0.0121165584999915,0.0579146533030227,0.150119352696866,0.213397843088982,0.014519108211922,0.181391651456133,0.051689340778247,0.041227380774012
0.0123869232854989,0.0598615108255418,0.150702132636045,0.215033393701569,0.0160523078895189,0.18487030833764,0.0514519639520611,0.0418058409411682
0.0126670526121867,0.0617806884566972,0.151332322473175,0.215853739350395,0.0178853695367256,0.188086573786096,0.0516838126463554,0.0422367933275829
0.0129544545049675,0.0636562037878904,0.152001476455114,0.215868486899215,0.0200250001891188,0.191018528784215,0.0523897731439932,0.0425164853858384
0.0132466876878773,0.0654716409575123,0.152698590231474,0.215096607221073,0.0224774065427154,0.193647436407632,0.0535683526306276,0.0426433619787966
0.0135414114864073,0.0672104081750492,0.153410350194074,0.213565906682958,0.0252480876926258,0.195958197394301,0.0552116187381702,0.0426181448351398
0.0138364311726831,0.0688560004609898,0.154121406548807,0.211312331774282,0.0283415945409329,0.197939765367769,0.057305248769041,0.042443865556159
0.0141297369483553,0.0703922618757404,0.154814673265403,0.208379134011303,0.0317612593349921,0.199585513431867,0.0598286876694391,0.0421258521271119
0.0144195354062274,0.0718036432979478,0.155471659542051,0.204815921743575,0.0355088995771087,0.200893537237716,0.0627554133391478,0.041671669303745
0.0147042729685159,0.0730754518057224,0.15607283540753,0.200677620236096,0.0395845024149611,0.201866877063139,0.0660533073697095,0.0410910124900074
0.0149826511267742,0.0741940858844941,0.15659802860126,0.196023360006521,0.0439858979669714,0.202513643846034,0.0696851279232046,0.04039555480307
0.0152536331396342,0.0751472492681577,0.157026843100639,0.190915317955176,0.0487084319962517,0.202847039646601,0.0736090788885886,0.0395987488139459
0.0155164415751142,0.0759241371254312,0.157339085098103,0.185417542170754,0.0537446491090067,0.202885269554626,0.0777794661509106,0.0387155871455708
0.0157705462956007,0.0765155912369296,0.157515181394319,0.1795947945491,0.0590839968895123,0.202651347687594,0.0821474287333405,0.0377623284624145
0.016015643217319,0.0769142244642387,0.157536577652564,0.173511442679859,0.0647125599826902,0.202172802846586,0.0866617304968319,0.0367561963687857
0.0162516250986061,0.0771145177234868,0.157386108535502,0.167230425742974,0.0706128324504374,0.201481287843314,0.09126959700255,0.0357150581518406
0.016478546331601,0.077112893570914,0.157048336661854,0.160812313886948,0.0767635369982584,0.200612090345665,0.0959175810841869,0.0346570894191537
0.0166965839239811,0.0769077689019055,0.156509860470592,0.154314478428252,0.0831395003616556,0.19960353723409,0.100552438405696,0.0336004308080149
0.0169059964972131,0.076499586545533,0.155759590458479,0.147790388698112,0.0897115946360935,0.198496285213043,0.105121991438855,0.032562843923786
0.017107082569274,0.0758908239897931,0.154788988665989,0.141289047709897,0.0964467541183466,0.197332498789233,0.109575959584141,0.0315613746321202
0.0173001391053623,0.0750859776639872,0.153592261732834,0.134854572521607,0.103308075907252,0.196154929465329,0.113866735760314,0.0306120320184925
0.0174854213764398,0.0740915224321457,0.152166497808216,0.128525919052312,0.110255009752698,0.195005921975964,0.117950094554002,0.0297294904934268
0.0176631053991928,0.0729158474728164,0.150511742292237,0.122336747499156,0.117243638513475,0.193926379463252,0.121785821672313,0.028926821296764
0.0178332544666245,0.0715691709997626,0.148631014358777,0.116315422456656,0.124227046402808,0.192954717513428,0.125338256406956,0.0282152587885981
0.0179957913694444,0.0700634368931504,0.146530272316404,0.110485139230634,0.131155769616612,0.192125831824916,0.128576737004831,0.0276040062819715
0.0181504777443081,0.0684121957922328,0.144218338263649,0.104864163407443,0.13797832334968,0.191470103219158,0.13147593647546,0.027100085279542
0.0182969014949463,0.0666304711973637,0.141706789908099,0.0994661660222117,0.144641799777426,0.191012467466791,0.134016078045702,0.0267082307079768
0.0184344724511341,0.0647346085080669,0.139009822228607,0.0943006345188705,0.151092531562021,0.190771582441175,0.136183025613542,0.026430833502242
0.0185624256315033,0.062742103795034,0.136144078551936,0.0893733405309156,0.157276812853839,0.190759127744985,0.13796825235813,0.026267930861884
0.0186798309825884,0.060671410401584,0.133128451207402,0.0846868477610162,0.163141664955399,0.190979269777838,0.139368696272804,0.026217243413905
0.018785608374105,0.058541724456921,0.12998385489739,0.0802410448745335,0.168635630564089,0.191428318080547,0.140386511879138,0.0262742572715174
0.0188785468690972,0.0563727536230577,0.126732979342561,0.0760336877089559,0.173709580681622,0.192094589462498,0.141028724803452,0.0264323479428796
0.0189573276878697,0.054184475412681,0.123400029743656,0.0720609327326097,0.178317519462728,0.192958487628462,0.141306796368197,0.0266829424904639
0.0190205505992259,0.0519968912819321,0.120010462634788,0.0683178428741022,0.182417370672929,0.193992797856433,0.141236110460054,0.0270157161276243
0.0190667634293877,0.0498297809101499,0.11659072057494,0.064798849615029,0.185971724701057,0.195163188312822,0.140835401146862,0.0274188192327879
0.0190944938602974,0.0477024595128301,0.11316796438199,0.0614981605045302,0.188948522621796,0.196428902375324,0.140126142514041,0.0278791302128738
0.0191022820511932,0.0456335407105746,0.10976979942593,0.0584101066224804,0.191321656862171,0.197743620884876,0.139131920100927,0.0283825286475048
0.0190887124109861,0.0436407079666331,0.106423993316871,0.0555294276154723,0.193071473551077,0.199056469954103,0.137877799503914,0.0289141821885983
0.0190524431833878,0.0417404982621187,0.103158184899123,0.0528514920051408,0.194185164134642,0.20031314765545,0.13638970679966,0.0294588403873379
0.0189922331590206,0.0399481020955213,0.0999995871795446,0.0503724501241853,0.19465703094416,0.201457138984617,0.134693837177188,0.0300011290419349
0.0189069654930533,0.0382771839047914,0.0969746880357966,0.0480893191543017,0.194488609240807,0.202430981847472,0.132816109472655,0.0305258395016163
0.0187956689763231,0.0367397265868589,0.0941089510674589,0.0460000038380231,0.193688633754868,0.203177542037285,0.130781682522978,0.0310182081415899
0.0186575369486491,0.0353459029105376,0.0914265157438814,0.0441032603425527,0.192272849335299,0.20364125747102,0.128614544531347,0.0314641813752229
0.0184919434644327,0.0341039752294215,0.088949894586401,0.0423986126039327,0.190263676776495,0.203769320695606,0.126337182404133,0.0318506609287307
0.0182984559500763,0.0330202231889583,0.0866996673003789,0.0408862300565979,0.187689750157738,0.20351277906707,0.123970336129906,0.0321657236235949
0.0180768438699138,0.0320988978249721,0.0846941762667327,0.0395667748836484,0.184585339590819,0.202827537995321,0.121532842088498,0.0323988106712447
0.0178270836552388,0.0313422001604659,0.0829492321599539,0.0384412271670685,0.18098966972776,0.201675251171127,0.119041566359344,0.0325408833883635
0.0175493608159759,0.0307502830512649,0.0814778403258531,0.0375106968656991,0.176946146691305,0.200024078745409,0.116511424361652,0.03258454441869
0.0172440702378491,0.0303212761241062,0.0802899572121728,0.036776231316466,0.172501513566903,0.197849298626698,0.113955479144623,0.0325241249501335
0.0169118152809529,0.0300513345303136,0.0793922840537017,0.0362386256859152,0.167704962941382,0.195133767215377,0.111385108607005,0.032355738435875
0.0165534060834335,0.0299347122998287,0.0787881048072206,0.0358982423074142,0.162607240103158,0.191868238327975,0.108810229874918,0.0320773007254745
0.0161698574633376,0.0299638602618167,0.0784771764873282,0.035754843830321,0.157259769895369,0.188051557317396,0.106239565561146,0.0316885167486491
0.0157623865448468,0.0301295476506162,0.0784556807784922,0.0358074444067097,0.151713834593354,0.183690748478197,0.103680934137799,0.0311908352126654
0.0153324098292973,0.0304210063413872,0.0787162449302358,0.0360541823232451,0.146019824009778,0.178801008124026,0.101141547730006,0.0305873744547436
0.0148815393445834,0.0308260968836185,0.0792480374158758,0.0364922162487677,0.140226574854587,0.173405607332671,0.0986283036344566,0.0298828238357031
0.0144115775473275,0.0313314954648942,0.0800369404580142,0.0371176456671241,0.134380812535947,0.167535701836339,0.0961480571930541,0.0290833253057736
0.0139245104078752,0.0319229002024235,0.0810657982808094,0.0379254547548441,0.128526703032835,0.161230043392208,0.0937078622108372,0.0281963390049395
0.0134224978429789,0.0325852540592028,0.0823147372201773,0.038909478545482,0.122705515169805,0.154534587332067,0.0913151649124291,0.0272304958497229
0.012907860879815,0.0333029809992923,0.0837615510626749,0.0400623906406383,0.11695538603046,0.147501994689599,0.0889779416968381,0.0261954398543265
0.0123830655086255,0.0340602317902845,0.0853821417124103,0.0413757124381883,0.111311175357913,0.140191033226154,0.0867047778824179,0.0251016633421022
0.0118507036350185,0.0348411355210419,0.0871510027954629,0.0428398440826021,0.105804390366201,0.1326658874624,0.0845048904469001,0.0239603386644234
0.0113134715400534,0.0356300519846187,0.0890417336065925,0.0444441165491663,0.100463162263864,0.124995390480835,0.0823880995887391,0.0227831500167358
0.0107741459325021,0.0364118191665542,0.0910275722237384,0.0461768629519045,0.0953122595702235,0.117252188219084,0.0803647527136164,0.0215821282382973
0.0102355575395669,0.0371719901687153,0.0930819374843956,0.0480255065434476,0.0903731284436224,0.109511843433071,0.0784456045462773,0.0203694906209066
0.00970056241066297,0.0378970550002308,0.0951789681297311,0.0499766632870886,0.0856639532949938,0.101851886636788,0.0766416600384981,0.0191574873369037
0.00917201148911648,0.0385746439832059,0.0972940452378576,0.0520162577869448,0.0811997303744341,0.0943508255622498,0.0749639905641911,0.0179582560005915
0.00865271925531808,0.0391937100552996,0.0994042840780167,0.0541296520890634,0.0769923461450934,0.0870871301642846,0.0734235362220773,0.0167836856171763
0.00814543217923335,0.0397446866307317,0.101488983611712,0.0563017869027233,0.0730506549485512,0.0801382139943772,0.0720309066528058,0.0156452905575979
0.00765279745102117,0.0402196170853187,0.103530023490961,0.058517333834012,0.0693805558931063,0.0735794331382526,0.0707961901951342,0.0145540946708887
0.0071773323357134,0.040612252737,0.105512197399912,0.060760855233142,0.0659850742660814,0.0674831212127318,0.0697287786542102,0.013520525612519
0.00672139462930767,0.0409181182848659,0.107423469373953,0.063016965932944,0.062864456047386,0.0619176756787412,0.0688372136029035,0.0125543197145017
0.00628715490145806,0.0411345460402586,0.109255140427646,0.0652704898323411,0.0600162845920676,0.0569467084225996,0.0681290592763504,0.011664437810915
0.00587657128597185,0.0412606818022173,0.111001917528822,0.0675066047264762,0.0574356266573098,0.0526282712923628,0.0676108055942339,0.0108589921448682
0.00549136743638856,0.041297465172104,0.112661883319951,0.0697109708661966,0.0551152117728021,0.0490141644130589,0.0672878022366319,0.0101451841303949
0.00513301402772515,0.0412475860231308,0.114236369527667,0.0718698415236042,0.0530456457699719,0.0461493324142209,0.0671642222094003,0.00952925274995856
0.00480271404339562,0.0411154183290297,0.115729737276353,0.073970155808532,0.0512156567327976,0.0440713515576894,0.0672430522366788,0.00901643368518174
0.00450139204845511,0.0409069331912649,0.117149065657541,0.0759996137553363,0.0496123698173959,0.0428100086407844,0.0675261072249056,0.00861092959052125
0.00422968764427158,0.0406295941059649,0.118503751206978,0.0779467320735614,0.0482216063532328,0.042386970920278,0.0680140656469073,0.00831589195631545
0.0039879532830019,0.0402922385442384,0.119805026787086,0.0798008787919565,0.047028202343699,0.0428155460986208,0.0687065209908714,0.00813341477083881
0.00377625658072429,0.0399049502667721,0.121065416235443,0.0815522873888619,0.0460163417041805,0.0441005323190599,0.0696020422022911,0.00806453998255955
0.00359438719665535,0.0394789262135111,0.122298147683023,0.0831920546299138,0.045169899913837,0.0462381589205361,0.0706982353124126,0.00810927470239479
0.00344186822333813,0.0390263403332767,0.123516550931914,0.0847121293998452,0.0444727937291528,0.0492161183442586,0.0719917997047446,0.00826661998075053
0.00331797186931565,0.0385602048363669,0.124733462109368,0.0861053007891938,0.0439093317730615,0.0530136881974431,0.0734785748571181,0.008534610750744
0.00322173909104248,0.0380942278843394,0.125960655205392,0.0873651919606234,0.0434645591260149,0.0576019411803785,0.0751535757828911,0.00891036632973201
0.00315200279845323,0.0376426661133952,0.127208318636501,0.0884862631169386,0.0431245873888744,0.0629440394418632,0.0770110167400058,0.00939015080104797
0.00310741429129464,0.0372201706211274,0.128484595324349,0.0894638244491914,0.0428769011394921,0.0689956082556822,0.0790443222347748,0.00996944248277314
0.0030864726286646,0.0368416259023836,0.129795204705494,0.0902940588776069,0.0427106324309936,0.0757051823344715,0.0812461220791993,0.0106430114362456
0.00308755665044016,0.0365219822326436,0.131143162778851,0.0909740541045223,0.0426167964650319,0.0830147179997869,0.0836082254465691,0.0114050037856596
0.00310895933360559,0.0362760824944793,0.132528611183826,0.0915018434433801,0.0425884829432317,0.0908601658021894,0.0861215695822344,0.0122490316839859
0.00314892407555711,0.0361184839173743,0.133948759327001,0.0918764548290585,0.0426209978975377,0.0991720996187366,0.0887761420842243,0.0131682679331167
0.00320568236392643,0.0360632742563038,0.135397936244316,0.0920979671651622,0.0427119500021358,0.107876397924422,0.0915608803343278,0.0141555442764855
0.00327749214025021,0.0361238819618011,0.136867742684892,0.0921675722926041,0.0428612752356813,0.116894970871179,0.0944635561571786,0.0152034520917676
0.00336267600609017,0.0363128812145541,0.138347290186242,0.092087638656425,0.0430711957131299,0.126146526103228,0.0974706563922585,0.0163044438765625
0.00345965825743083,0.0366417945721765,0.139823512733067,0.091861769246695,0.0433461120919789,0.135547368840752,0.100567269538461,0.0174509338867959
0.00356699960006528,0.0371208974785073,0.141281536511094,0.0914948437159385,0.0436924327480624,0.145012236394654,0.103736986024713,0.0186353965490095
0.00368342836643853,0.037759029316729,0.142705091950573,0.0909930348322258,0.044118345326239,0.154455171316926,0.106961818315521,0.0198504616016978
0.00380786716373765,0.0385634148646761,0.144076948319705,0.0903637925268772,0.0446335365408752,0.163790438452112,0.110222148375368,0.0210890050614497
0.00393945410984757,0.0395394986367843,0.14537934731016,0.0896157931168332,0.0452488656524938,0.172933488029402,0.113496712670048,0.0223442348273902
0.00407755807227203,0.040690793720786,0.1465944128598,0.08875885447212,0.045975997996913,0.181801960241634,0.11676263696126,0.0236097690926396
0.00422178749617439,0.0420187466416787,0.147704520620307,0.0878038180185044,0.0468270072761596,0.190316718670302,0.119995533264852,0.0248797052752236
0.00437199241703027,0.0435226203049851,0.148692619388941,0.0867623965445608,0.0478139576733552,0.198402892134307,0.123169669066837,0.0261486773693636
0.00452825920567235,0.0451993979122866,0.149542504426777,0.0856469866938699,0.0489484779794919,0.205990897922313,0.126258214710182,0.0274119004054126
0.00469089769634886,0.0470437115975398,0.150239045031606,0.0844704481969606,0.0502413393150103,0.21301741526636,0.129233569696574,0.0286652017320342
0.00486042065579351,0.0490478000311483,0.150768366430795,0.0832458565280417,0.051702046085832,0.219426277923401,0.132067763112902,0.0299050395790403
0.00503751597356765,0.0512014989610602,0.151117985503719,0.0819862391965882,0.0533384475206186,0.225169259348,0.134732917398658,0.0311285093325852
0.00522301235331865,0.0534922673241183,0.151276904718989,0.0807043063977424,0.05515637543121,0.23020673142445,0.137201758397341,0.0323333371952594
0.00541783952405082,0.0559052496099417,0.151235675800678,0.0794121847423159,0.0571593129763827,0.234508183988015,0.139448149958287,0.0335178603266377
0.00562298399708727,0.0584233737175726,0.150986448825972,0.0781211614502001,0.0593480985526715,0.238052592701835,0.141447630185631,0.0346809928908471
0.00583944126642519,0.061027483137189,0.150523020869762,0.0768414473227092,0.0617206675653487,0.240828617768225,0.143177928955595,0.0358221785426694
0.00606816529921468,0.0636965026643526,0.149840893786104,0.0755819686642737,0.0642718331835509,0.242834614287411,0.144619451181545,0.0369413312161649
0.00631001626799426,0.0664076375447619,0.148937347476835,0.0743501991706016,0.0669931070245733,0.24407844268214,0.145755714957069,0.0380387669736707
0.00656570768969608,0.0691366065036376,0.147811531937656,0.0731520414884964,0.0698725625826228,0.244577081759036,0.146573735132667,0.0391151295535612
0.00683575438313277,0.071857909166509,0.146464576374275,0.0719917649632397,0.0728947470573253,0.244356061736286,0.147064340048244,0.0401713111972559
0.00712042284839875,0.0745451276217898,0.144899709125712,0.0708720024512784,0.0760406494139648,0.243448744312626,0.147222406278058,0.0412083694498337
0.00741968571388861,0.0771712600276147,0.143122380481746,0.0697938057834916,0.0792877326025908,0.2418954779208,0.147046998353294,0.0422274407730755
0.00773318173973925,0.0797090811933708,0.141140379568966,0.0687567564260659,0.0826100358106108,0.239742649656121,0.146541407354196,0.0432296527626477
0.00806018261169714,0.0821315218887993,0.138963933287147,0.0677591252454637,0.0859783503420539,0.237041648717083,0.145713090792615,0.0442160378062295
0.00839956758817868,0.0844120566551565,0.136605771751241,0.0667980735057957,0.0893604716304123,0.233847756170155,0.144573522680146,0.0451874513533476
0.00874980700903386,0.0865250896858585,0.134081145725825,0.0658698865648959,0.0927215294747502,0.230218982043221,0.14313796426386,0.0461444971031789
0.00910895564045396,0.0884463297101134,0.13140778737255,0.0649702317733044,0.0960243976981872,0.226214879530728,0.141425162583839,0.0470874599747766
0.00947465669188882,0.0901531470881477,0.128605812389266,0.0640944317046224,0.0992301821169646,0.221895373326754,0.139456980459159,0.0480162470379302
0.00984415703199671,0.0916249084305919,0.125697564932312,0.0632377422153312,0.102298781932608,0.217319641157347,0.137257962246317,0.0489303369932327
0.0102143337496192,0.0928432846334153,0.122707405135457,0.0623956232101589,0.10518951598732,0.212545082773267,0.134854844449582,0.0498287396916312
0.0105817318910586,0.0937925264223631,0.119661437058233,0.0615639905382475,0.107861803147987,0.207626402233724,0.132276026242504,0.0507099677604641
0.0109426129235672,0.0944596989800692,0.116587177455827,0.0607394402046346,0.110275884947169,0.202614823457658,0.129551019033976,0.0515720219426942
0.0112930131070877,0.0948348672375291,0.113513172112395,0.0599194393848993,0.112393576940516,0.197557457097204,0.126709894001578,0.0524123901401992
0.0116288104878489,0.0949112267383841,0.110468572946389,0.0591024805669885,0.114179031846398,0.192496835714294,0.12378274261582,0.0532280584615097
0.0119457988243411,0.094685179803695,0.107482692192944,0.058288194710733,0.11559949382877,0.187470630597953,0.12079916184707,0.0540155320177469
0.012239766549272,0.0941563602353918,0.104584548417196,0.0574774187826711,0.116626022181171,0.182511555983471,0.117787775404811,0.0547708638588431
0.0125065788423912,0.0933276098736695,0.101802415663073,0.0566722149305832,0.117234164782596,0.177647457177197,0.114775803415522,0.0554896917093986
0.0127422609391523,0.092204908317587,0.099163385141174,0.0558758424715725,0.117404565434381,0.172901570601352,0.111788692819851,0.0561672833041765
0.0129430807724038,0.0907972569979265,0.096692948306369,0.0550926877062629,0.117123492085831,0.168292935362324,0.108849817870541,0.0567985913959284
0.0131056287828662,0.0891165214052418,0.09441460943957,0.054328158387997,0.116383272719358,0.163836928468729,0.10598025546177,0.0573783184001201
0.0132268923533935,0.0871772382176186,0.0923495344290187,0.0535885490871427,0.115182622977823,0.159545892450141,0.103198636338849,0.0579009886366421
0.0133043222652714,0.0849963947167229,0.0905162408090009,0.0528808828439417,0.1135268493255,0.155429824773981,0.100521070897013,0.058361024872147
0.0133358890620312,0.0825931857777603,0.0889303327784535,0.0522127352718581,0.111427916536088,0.15149709937425,0.0979611454871438,0.0587528262906139
0.0133201280510066,0.0799887516926219,0.0876042836657732,0.0515920490688347,0.108904376782493,0.14775518824349,0.0955299811965565,0.0590708467377178
0.0132561724854967,0.0772059003240236,0.0865472661418007,0.0510269483051356,0.105981165673173,0.144211347717243,0.0932363441028007,0.0593096741782072
0.0131437748495058,0.0742688186740879,0.0857650273998639,0.0505255619401487,0.102689274492623,0.140873236071709,0.0910867958226365,0.0594641137869548
0.0129833160181329,0.0712027799810413,0.0852598049391656,0.0500958646027428,0.0990653070219683,0.137749437201506,0.0890858748230421,0.0595292771835717
0.0127758018931353,0.0680338515506593,0.0850302800847865,0.0497455402053115,0.0951509282692336,0.134849875047449,0.0872363001157659,0.0595006787371307
0.0125228474180414,0.0647886059753124,0.0850715695104108,0.0494818711216014,0.0909922152300416,0.132186109810052,0.0855391877909664,0.0593743373757522
0.01222664859322,0.0614938364269636,0.0853752569604445,0.0493116528826185,0.0866389252443656,0.129771507229293,0.0839942684107306,0.0591468803647749
0.0118899439099062,0.0581762767271042,0.0859294664657343,0.0492411316590061,0.0821437024888808,0.127621270658449,0.0826000929859583,0.058815644640622
0.0115159671855835,0.0548623283018181,0.086718976719687,0.0492759592843892,0.077561245149126,0.12575232906199,0.0813542182579857,0.0583787713080484
0.0111083939032697,0.0515777976915891,0.0877253764856856,0.0494211589777182,0.07294745425375,0.124183082783764,0.0802533668885809,0.0578352895510826
0.0106712828519859,0.0483476489156692,0.0889272615805959,0.0496810950089419,0.0683585822445147,0.122933018886025,0.0792935629475019,0.0571851872318501
0.0102090144781501,0.0451957740956571,0.0903004727714267,0.050059441325235,0.0638503975406603,0.122022214632323,0.0784702460009661,0.0564294665617919
0.00972622720916448,0.0421447836716549,0.0918183718477687,0.0505591467414624,0.0594773804324714,0.121470748692751,0.0777783670447627,0.0555701839638021
0.00922775308971513,0.0392158156511291,0.0934521527020229,0.051182396173213,0.055291964471924,0.121298036890447,0.0772124672841787,0.0546104729637302
0.0087185542273885,0.036428362570871,0.0951711845593396,0.0519305674547989,0.0513438356067956,0.121522108194218,0.0767667392701762,0.0535545474084676
0.00820366163554762,0.0338001151833563,0.0969433831739445,0.0528041828424004,0.0476792987884175,0.122158839154927,0.0764350708370508,0.0524076808543928
0.00768811799200548,0.0313468229153191,0.098735603785414,0.0538028556879111,0.0443407191027255,0.123221169354872,0.0762110749849265,0.0511761584711114
0.00717692556928785,0.029082172381623,0.100514050028807,0.0549252357857477,0.0413660419318416,0.124718324588368,0.0760881119886362,0.0498672004099325
0.0066750001795022,0.027017686080466,0.102244695591456,0.0561689595208351,0.0387883942373637,0.126655076878384,0.0760593124206279,0.0484888590694159
0.00618713151250046,0.0251626433546836,0.103893717166567,0.0575306114632395,0.0366357666493213,0.129031070044826,0.0761176106645971,0.0470498954158099
0.00571794979784925,0.0235240248112026,0.105427936021926,0.0590057027787613,0.0349307739881212,0.131840236004921,0.0762557975287336,0.0455596402201079
0.0052718983122843,0.0221064804887012,0.106815263228337,0.0605886706578815,0.0336904907255092,0.135070321631728,0.0764665978331167,0.0440278450710805
0.00485321089046666,0.020912321826294,0.108025143579585,0.0622729021957894,0.0329263577301908,0.138702541533525,0.0767427749444306,0.0424645273425998
0.004465893298334,0.0199415377447208,0.109028994739268,0.064050784648726,0.032644156924188,0.142711369443396,0.0770772600969313,0.0408798139081521
0.00411370719540934,0.0191918354707494,0.109800638078118,0.0659137818311634,0.0328440504609431,0.147064478843818,0.0774633004704216,0.0392837894666815
0.00380015551825759,0.0186587067961004,0.110316715031336,0.0678525348636818,0.0335206802740416,0.151722840504081,0.0778946165778832,0.037686355761227
0.00352846841210424,0.0183355201450295,0.11055708063086,0.0698569844518785,0.0346633229535028,0.156640979999087,0.0783655570688864,0.0360971071687449
0.00330158916809256,0.0182136382088493,0.110505165902946,0.0719165101836915,0.0362560949549186,0.161767392376278,0.0788712383717505,0.0345252265013534
0.00312215981212049,0.0182825601810018,0.110148300716927,0.0740200801088748,0.0382782042077969,0.167045105278637,0.0794076581865207,0.0329794033655492
0.00299250601643205,0.0185300869473875,0.109477986413298,0.0761564029907703,0.0407042455749231,0.172412377537318,0.0799717753719606,0.031467776388299
0.00291462108861626,0.0189425069450059,0.108490105770163,0.0783140768956381,0.0435045384978292,0.177803518210957,0.0805615529129407,0.0299978996796813
0.00289014906077366,0.0195047996711354,0.107185060014995,0.0804817301598694,0.0466455049167261,0.183149810479375,0.0811759634567301,0.0285767326960921
0.00292036723248335,0.0202008531388352,0.105567827370695,0.0826481524516691,0.0500900843151206,0.188380523496023,0.0818149568622173,0.0272106511666572
0.00300616874310568,0.021013691362353,0.103647941082319,0.0848024131045194,0.0537981816619474,0.193423990933637,0.0824793875141568,0.0259054754500746
0.00314804578905987,0.0219257083017028,0.101439384497602,0.0869339618558063,0.0577271439077257,0.19820872862464,0.0831708993970942,0.0246665120823981
0.00334607405733964,0.0229189051853295,0.0989603994263305,0.0890327065997888,0.0618322613052876,0.202664560565348,0.0838917704710278,0.0234986043264735
0.0035998989369564,0.023975128188343,0.0962332063753291,0.0910890651113237,0.0660672904723569,0.206723725307052,0.0846447233460755,0.0224061878704233
0.00390872406163146,0.0250763030145316,0.0932836411900574,0.0930939917115756,0.0703849959419802,0.210321941848171,0.0854327144410009,0.0213933479296013
0.00427130266276678,0.0262046627936035,0.090140718951846,0.0950389835071352,0.0747377053751217,0.213399422350017,0.0862587167353233,0.0204638735551872
0.0046859321217278,0.0273429662155489,0.0868361397045981,0.096916072274008,0.0790778714108321,0.215901824889679,0.0871255107876432,0.0196213044393143
0.00515045209174108,0.0284747033369884,0.0834037503184041,0.0987178064031688,0.0833586320669929,0.217781140205541,0.0880354957839942,0.0188689658669293
0.00566224658389756,0.0295842863188973,0.0798789741572696,0.10043722400723,0.0875343622166171,0.218996501006833,0.0889905294313022,0.018209988839595
0.00621825037660908,0.0306572219382623,0.0762982187474312,0.102067816185579,0.0915612100743771,0.219514894499403,0.0899918033585151,0.017647314172966
0.00681495997448268,0.0316802630415737,0.0726982724425017,0.103603479648867,0.095397613353988,0.219311754615293,0.0910397584506511,0.0171836806990854
0.00744844924078013,0.0326415369655363,0.0691157028675785,0.105038459835092,0.0990047884426486,0.218371412455589,0.0921340415591882,0.0168215980660353
0.00811438987767703,0.0335306493072642,0.0655862712965155,0.106367288343476,0.102347182984729,0.21668739053447,0.0932735014898032,0.0165633046050081
0.00880807707271387,0.0343387609712503,0.0621443773218508,0.107584720830668,0.105392880335538,0.214262536175211,0.0944562189042726,0.0164107113760722
0.00952446070559799,0.0350586363487047,0.0588225471131736,0.108685682186909,0.108113945110458,0.211108998666278,0.0956795627686447,0.0163653347982323
0.0102581823780204,0.035684661581453,0.0556509764882821,0.109665223831448,0.110486702069552,0.207248059864532,0.0969402657805339,0.0164282214816847
0.0110036182672004,0.0362128333313406,0.0526571372350505,0.110518494035259,0.112491944564626,0.202709826095813,0.0982345125176287,0.0165998693761311
0.011754927650785,0.0366407190570785,0.0498654519564594,0.111240719218484,0.114115072042726,0.197532782931559,0.0995580356650749,0.0168801491259916
0.0125061069482541,0.0369673893589893,0.0472970398861005,0.111827194024057,0.115346156744701,0.191763211418955,0.100906215854724,0.0172682292723685
0.0132510491068473,0.0371933230562539,0.0449695343003556,0.112273280172169,0.116179937345887,0.18545446804442,0.102274178398998,0.0177625090302511
0.0139836079386614,0.0373202871770788,0.0428969712558019,0.112574417310915,0.116615735420159,0.178666138783358,0.103656877587458,0.0183605624989525
0.0146976665816077,0.0373511960532565,0.0410897487929701,0.112726151710656,0.116657293048807,0.171463086440467,0.105049159561095,0.0190590979665153
0.0153872088998094,0.0372899548085323,0.0395546548008914,0.11272418916959,0.116312536142942,0.163914416935028,0.106445798578696,0.0198539353297769
0.0160463925780107,0.0371412921842169,0.0382949601297981,0.112564475988117,0.115593275108924,0.156092391825283,0.107841507022617,0.0207400037685392
0.0166696227998979,0.036910587112775,0.037310571526182,0.112243307350251,0.11451485921499,0.148071310548288,0.109230924457685,0.0217113608861236
0.0172516254437324,0.0366036939412872,0.0365982371892545,0.11175745867549,0.113095801472017,0.139926380159636,0.11060859335345,0.0227612335387454
0.0177875184246598,0.0362267721855502,0.0361517968089472,0.111104333723824,0.111357387277958,0.131732588107263,0.111968927627334,0.0238820796000339
0.0182728793575786,0.0357861270210388,0.0359624679597735,0.110282122926829,0.109323275228217,0.123563595541468,0.113306176474849,0.0250656690373532
0.0187038076469883,0.0352880658645552,0.0360191611661413,0.109289965961354,0.107019094929394,0.115490672230493,0.114614383541977,0.0263031817599597
0.0190769795505876,0.0347387749899881,0.0363088159349192,0.108128113636596,0.104472044769888,0.10758169645911,0.115887341927279,0.0275853187770981
0.0193896953879557,0.0341442188799231,0.0368167491770057,0.106798085357746,0.101710492069362,0.0999002424681547,0.117118548048081,0.028902422784137
0.0196399184452403,0.033510063711629,0.0375270066527046,0.105302818996245,0.098763578571567,0.0925047739536787,0.118301160613324,0.0302446046235782
0.0198263049481332,0.0328416248703998,0.038422708444264,0.103646808800426,0.0956608354909196,0.0854479570950544,0.119427973117899,0.0316018727595689
0.019948223905717,0.0321438372167149,0.0394863809225171,0.101836223593375,0.0924318137117058,0.0787761027163131,0.120491407814965,0.0329642632174958
0.0200057653513772,0.0314212461258266,0.0407002696445495,0.0998789941686338,0.0891057355316732,0.0725287443291762,0.121483535618855,0.0343219669502646
0.0199997358956684,0.0306780165024227,0.0420466293998443,0.0977848585538373,0.0857111737243237,0.0667383558810613,0.122396122249273,0.0356654510918583
0.0199316413687364,0.0299179558473857,0.0435079884453667,0.0955653570984269,0.0822757611135363,0.061430209407184,0.123220699195953,0.0369855711149834
0.0198036572394589,0.0291445468182188,0.0450673834712844,0.0932337746660779,0.0788259301541273,0.0566223687567097,0.12394865897151,0.038273672388502
0.0196185879765605,0.0283609851795532,0.0467085611679941,0.0908050324502861,0.075386679540315,0.052325812052662,0.124571375950236,0.0395216811290004
0.0193798163013722,0.0275702202074645,0.0484161430463851,0.0882955349498259,0.0719813648310477,0.0485446728697649,0.125080354741774,0.0407221853156883
0.0190912428181744,0.0267749956934829,0.0501757522400257,0.0857229771598146,0.0686315119658506,0.0452765878699317,0.12546740583436,0.0418685054228315
0.0187572165791112,0.0259778899730506,0.0519741028055006,0.0831061143993694,0.065356655248556,0.0425131363155327,0.125724843853187,0.0429547537069111
0.0183824578408353,0.0251813528146377,0.0537990521827523,0.0804644959201308,0.0621742037137459,0.0402403545722739,0.125845700685485,0.0439758805099628
0.0179719751413153,0.0243877365440979,0.0556396169822933,0.0778181649334602,0.0590993406938509,0.0384393074813928,0.125823945729616,0.0449277067643178
0.0175309793423658,0.0235993192888679,0.0574859532899805,0.0751873309162978,0.0561449602965435,0.0370866990976726,0.125654707336554,0.0458069430878761
0.017064797137032,0.0228183195171964,0.0593293049675794,0.072592023521942,0.0533216422693742,0.0361555073524069,0.125334490762539,0.0466111968921508
0.0165787859600048,0.0220469024844284,0.0611619249425703,0.070051739859475,0.0506376653169427,0.035615629397775,0.124861386504665,0.0473389691298532
0.0160782518884392,0.0212871801454686,0.062976974075543,0.0675850973762362,0.0480990587480075,0.03543452530692,0.124235258945931,0.0479896413025879
0.0155683721496795,0.0205412061442763,0.0647684016442025,0.0652095028212842,0.0457096922131373,0.035577847843106,0.123457902605016,0.0485634518202614
0.0150541239796982,0.0198109668921407,0.0665308129161094,0.0629408450874156,0.0434714021721328,0.0360100474242182,0.12253315473467,0.0490614602201245
0.0145402214838964,0.0190983693475809,0.0682593319693398,0.0607932181654506,0.0413841517674169,0.0366949447137554,0.121466957468578,0.0494854986001886
0.014031061692915,0.018405226274818,0.0699494697196192,0.058778680401327,0.0394462189851926,0.0375962667487679,0.120267367231059,0.0498381113232519
0.0135306803954272,0.0177332401836112,0.0715970065460056,0.0569070568483835,0.0376544063903559,0.0386781443003012,0.118944510557594,0.0501224856919492
0.0130427179304769,0.017083987472136,0.0731978966413018,0.0551857917452439,0.0360042641868527,0.0399055681253,0.117510483274199,0.0503423769975386
0.0125703949500079,0.0164589043096679,0.0747481990770296,0.0536198572781417,0.0344903179038612,0.0412448018406371,0.115979188632687,0.0505020305696296
0.0121164979782297,0.0158592754969111,0.0762440387834745,0.0522117226478697,0.0331062931556686,0.0426637503344904,0.114366113323042,0.0506061016649137
0.0116833742053472,0.0152862270314605,0.0776815985206993,0.0509613848464034,0.0318453317929484,0.0441322840250593,0.112688046856303,0.0506595727036582
0.0112729344922735,0.0147407224769301,0.0790571405018489,0.0498664603219869,0.0307001949767212,0.0456225196689352,0.110962755879981,0.0506676673096765
0.0108866633781557,0.0142235625097023,0.0803670543782583,0.0489223346646755,0.0296634486217254,0.0471090575323177,0.109208627259474,0.0506357615945758
0.0105256350302488,0.0137353863499834,0.0816079274136083,0.0481223651253045,0.0287276264954144,0.048569173855969,0.107444291685972,0.0505692945824948
0.0101905343164254,0.0132766735315987,0.0827766325328191,0.0474581286575159,0.0278853674773298,0.0499829676954834,0.105688236841318,0.050473680964246
0.00988168222304788,0.012847744782376,0.0838704292155837,0.0469197069391603,0.0271295257873529,0.0513334616698963,0.103958419107107,0.0503542298977067
0.00959906460165988,0.0124487614809474,0.0848870700229755,0.0464959991320244,0.0264532552301709,0.0526066556716514,0.102271884856263,0.050216072891308
0.00934236303550565,0.0120797238334182,0.0858249036375402,0.0461750520464532,0.0258500696853095,0.0537915315677209,0.100644414564744,0.0500641019671042
0.00911098677567084,0.011740468180255,0.0866829660327383,0.0459443959856915,0.0253138819300838,0.0548800072309525,0.0990902038659829,0.0499029172872496
0.00890410511317774,0.0114306636592317,0.0874610544009804,0.0457913743820683,0.0248390223510306,0.0558668401406973,0.0976215945388895,0.0497367823432636
0.00872067996665008,0.0111498083266031,0.088159781540631,0.0457034570044896,0.0244202392783323,0.0567494825961391,0.0962488652036501,0.0495695848460777
0.00855949864709049,0.0108972251345299,0.0887806091929834,0.045668528914643,0.0240526835445654,0.0575278907005199,0.0949800867585826,0.0494048023176119
0.00841920662036386,0.0106720586822588,0.0893258570090951,0.0456751487884676,0.0237318808230161,0.0582042887212909,0.0938210427770002,0.0492454726589046
0.00829833979299656,0.0104732740546157,0.0897986824819297,0.0457127700108078,0.0234536957737724,0.0587828918546694,0.092775211655259,0.0490941711841681
0.00819535569651171,0.010299659105954,0.0902030287982035,0.045771917911106,0.0232142917100086,0.0592695939444456,0.091843805738028,0.0489529962692636
0.00810866302870211,0.0101498312277679,0.0905435413658806,0.0458443185495812,0.0230100886776013,0.0596716301723094,0.0910258627548724,0.0488235653961178
0.00803664924287144,0.0100222491815901,0.0908254575371597,0.0459229779523574,0.0228377222600734,0.059997226001215,0.0903183860037769,0.0487070218568752
0.00797770613254799,0.00991523021654587,0.0910544755003448,0.0460022137249763,0.0226940053472514,0.0602552428014078,0.089716530657552,0.0486040506619134
0.00793025349739121,0.00982697244710705,0.0912366068139007,0.0460776420050736,0.0225758952633235,0.0604548301803791,0.0892138329845451,0.0485149016027803
0.00789276088508529,0.00975558228877454,0.09137801553441,0.0461461221440108,0.0224804686769446,0.0606050961020454,0.0888024766091384,0.0484394181590565
0.0078637671791626,0.00969910659601655,0.0914848483106668,0.0462056616755387,0.0224049063438692,0.0607148070405974,0.0884735869923065,0.0483770723725914
0.00784189773181296,0.00965556897038124,0.0915630633520157,0.0462552861052045,0.0223464888834697,0.0607921302259602,0.0882175444856711,0.0483270071356244
0.0078258789083664,0.00962300944163952,0.0916182691636311,0.0462948808707608,0.0223026037123172,0.0608444280749365,0.0880243075843725,0.0482880878585064
0.00781455014330353,0.00959952632821534,0.0916555841412879,0.0463250149911831,0.0222707623217649,0.0608781117908627,0.0878837397143358,0.0482589647809289
0.00780687368588889,0.00958331864567536,0.0916795254347288,0.046346756330658,0.022248626371991,0.0608985576788494,0.0877859331664374,0.0482381453514038
0.00780194204470602,0.00957272711867303,0.0916939324003492,0.0463614873321222,0.0222340404649938,0.0609100861632653,0.0877215216358639,0.0482240739859556
0.00779898289290496,0.00956627167773004,0.0917019281221198,0.04637072928281,0.0222250688267355,0.0609159998482911,0.0876819693796042,0.0482152150085206
0.0077973610675028,0.00956268316896473,0.0917059212157538,0.0463759834886665,0.0222200323696049,0.060918673434823,0.0876598223301047,0.0482101337344704
0.00779657723707152,0.00956092673974793,0.0917076483685109,0.0463785984012305,0.0222175416446994,0.060919685224112,0.0876489047539479,0.0482075701306435
0.00779626267067352,0.00956021394834534,0.0917082551802198,0.0463796717759137,0.0222165200360162,0.0609199774502791,0.0876444431390948,0.0482064988653591
0.00779616924378521,0.00956000020155429,0.0917084087082512,0.0463799958206761,0.0222162103623587,0.0609200305273178,0.0876430960889285,0.0482061684811289
