APL,FCR,FDS,FDP,ED,EI,ECU,ECR
0.00319586889903397,-0.000201371712080265,-0.00801897512263648,-0.00610976429943628,-0.00320165113784749,0.00713316855077431,0.000747369049462781,0.0341586763792219
0.00356943125064246,0.000530992998527165,-0.00173109313872064,0.00371846296625026,-0.00158074981600316,0.00852604021444674,0.000877228375383106,0.0480517907950597
0.00394628709237305,0.00131930095690112,0.00428554871828713,0.0132179076397248,1.68940179512101e-05,0.00980857686339241,0.000998116687494531,0.0618466617697654
0.00432363775728536,0.00216257605380729,0.00998501614126976,0.0223247935801955,0.00158183734921258,0.0109667725259731,0.00110904878022492,0.0754596034592484
0.00469860125136803,0.00305931234871573,0.0153257890572495,0.0309816063771234,0.00310524807564301,0.0119882008759921,0.00120918561074381,0.0888105131215057
0.00506824773995987,0.00400745002945301,0.0202714304304541,0.0391380130798291,0.00457902894175915,0.0128622914947222,0.00129784974798661,0.101824081520587
0.00542963581390628,0.00500435321751714,0.0247911186326037,0.0467515751869751,0.00599591626366055,0.0135805766318538,0.00137453656046738,0.114430856882791
0.00577984896314718,0.00604679046164456,0.0288600356546592,0.0537882441628194,0.00734955212616183,0.0141369038099822,0.00143892093992088,0.126568146877225
0.00611603186940838,0.00713091912145808,0.0324596121042839,0.0602226423735498,0.00863453041552665,0.0145276115268736,0.00149085965110787,0.138180756828772
0.00643542628172516,0.00825227503834451,0.0355776348216762,0.0660381404491542,0.00984641794648326,0.0147516665431033,0.00153038959342728,0.149221570572852
0.00673540630404488,0.00940576886140865,0.0382082244629914,0.0712267445562331,0.0109817521844125,0.0148107615614907,0.00155772233137637,0.159651981480198
0.0070135128575194,0.0105856901741187,0.0403516913403561,0.0757888077104152,0.0120380172761991,0.0147093719515494,0.00157323523901705,0.169442178899207
0.00726748686848351,0.0117857203136838,0.0420142799430993,0.0797325817853032,0.0130136006470511,0.0144547703665103,0.00157745959647812,0.17857129568586
0.00749530047211595,0.0129989546271713,0.0432078153046932,0.0830736311426818,0.0139077331492553,0.0140569988705061,0.00157106601104862,0.187027426913836
0.00769518537205021,0.0142179348802927,0.0439492667170336,0.0858341330949695,0.0147204163926017,0.0135287992610418,0.00155484759124949,0.194807535751608
0.00786565752491471,0.0154346925755948,0.0442602456735489,0.0880420933253184,0.0154523412241279,0.0128855032874321,0.00152970135443826,0.201917266711239
0.0080055375014558,0.0166408039570248,0.044166455198965,0.0897305052045765,0.0161048012251263,0.0121448851342002,0.00149660838260865,0.208370686413687
0.00811396613888344,0.0178274573554233,0.0436971069566079,0.0909364805195209,0.0166796045906298,0.0113269786721869,0.00145661325129149,0.21418996665385
0.0081904153258302,0.0189855331396652,0.0428843208552152,0.0917003757516514,0.0171789871395495,0.0104538616711905,0.00141080324149854,0.219405016460542
0.00823469381258661,0.0201056958707022,0.0417625196765262,0.0920649335387922,0.0176055287461115,0.00954940891885082,0.00136028780464622,0.224053063800261
0.00824694776732843,0.0211784975648772,0.0403678291828021,0.0920744545951589,0.0179620751963528,0.008639016382235,0.00130617868749315,0.228178185415926
0.00822765563200585,0.0221944905408062,0.0387374926409043,0.0917740119416173,0.0182516672595955,0.00774929909975072,0.001249571049617,0.231830784106854
0.00817761695178026,0.023144348197231,0.0369093076729383,0.0912087168892467,0.0184774785366316,0.0069077661368805,0.00119152583931966,0.235067014729242
0.00809793525224032,0.0240189921474584,0.0349210926174339,0.0904230446566857,0.0186427633432584,0.00614247642236191,0.00113305364373961,0.237948160902466
0.00798999551402511,0.0248097242535553,0.0328101889274091,0.0894602264745881,0.0187508154624285,0.00548167943364577,0.00107510019220662,0.240539961141218
0.00785543710277531,0.0255083620516522,0.0306130052996266,0.0883617140795259,0.0188049379954849,0.00495344456769091,0.0010185336637978,0.242911875373035
0.00769612300157822,0.0261073756231276,0.0283646080156033,0.0871667210461333,0.0188084237268025,0.00458528292645294,0.00096413392714127,0.245136276034265
0.00751410598885671,0.0266000230668535,0.0260983603864917,0.0859118428362349,0.0187645445421448,0.00440376537053147,0.000912583819731925,0.247287548581509
0.00731159233113059,0.0269804807358047,0.0238456126702024,0.0846307536645922,0.0186765478551386,0.00443414094972678,0.000864462551608354,0.249441094682769
0.00709090371252581,0.0272439639079736,0.0216354427975665,0.0833539746736432,0.0185476578840592,0.00469996001197919,0.000820241289539096,0.251672243416881
0.00685443836215991,0.027386833777529,0.0194944476531556,0.0821087061633417,0.0183810799248209,0.0052227063067888,0.000780280939176061,0.254055085308388
0.00660463250002304,0.027406687442994,0.0174465842197639,0.08091871699098,0.0181800062674683,0.00602144234293079,0.000744832096055511,0.256661245367023
0.00634392318878862,0.0273024286131499,0.0155130593364305,0.079804285969504,0.0179476227790248,0.00711247233207178,0.000714037090547792,0.259558606056045
0.00607471345328981,0.0270743175759637,0.0137122660066956,0.0787821919591706,0.0176871151058794,0.00850902723270963,0.000687934009825646,0.262809989725598
0.00579934026989146,0.0267239990790989,0.0120597633347153,0.0778657500262851,0.0174016729430352,0.0102209765254644,0.000666462538269712,0.26647181798024
0.00552004588303922,0.0262545061712522,0.0105682966334199,0.0770648896132414,0.0170944904667878,0.0122545712651951,0.000649471418427513,0.270592778767895
0.00523895286354046,0.0256702377851475,0.00924785408939228,0.0763862680919984,0.016768761319488,0.014612222780219,0.000636727300055322,0.275212544129684
0.00495804330449759,0.0249769087526549,0.00810575636424977,0.0758334120342637,0.0164276673744477,0.01729232138259,0.000627924711781746,0.280360587065267
0.00467914248758601,0.0241814727673041,0.00714677541018656,0.0754068801262962,0.0160743615285418,0.0202890996804708,0.000622696863826404,0.286055142224992
0.0044039072028702,0.0232920207208518,0.00637327849386979,0.0751044449049266,0.0157119455549488,0.0235925454230044,0.000620626984771444,0.292302345014622
0.00413381868011472,0.0223176579743549,0.00578539320874472,0.0749212937265565,0.0153434442612009,0.0271883690632536,0.000621259915047181,0.29909557473785
0.00387017987611432,0.0212683641074703,0.00538118934747763,0.0748502509901812,0.0149717768574978,0.0310580311712015,0.000624113716731577,0.306415023317473
0.00361411673899897,0.0201548382452704,0.00515687377813457,0.0748820227052325,0.0145997261298716,0.0351788342696123,0.000628691098204975,0.314227510478417
0.00336658303344913,0.0189883332107418,0.00510699464311535,0.0750054618882814,0.0142299061912448,0.0395240825869477,0.000634490475566866,0.322486566621476
0.00312836831652325,0.017780482475877,0.0052246511771655,0.0752078512978903,0.0138647301197878,0.0440633119430502,0.000641016491022204,0.331132803911571
0.00290010864687347,0.0165431245932771,0.00550170544584819,0.0754751996745655,0.0135063793483967,0.0487625908007209,0.00064778979839263,0.340094592786227
0.00268229954235187,0.0152881300119308,0.00592899247465678,0.0757925484012364,0.0131567769629287,0.0535848923939158,0.000654355937353779,0.349289054079653
0.00247531058963606,0.014027234777545,0.00649652537949544,0.0761442865837663,0.0128175669592829,0.0584905366074544,0.000660293157497059,0.358623365642887
0.00227940105578406,0.0127718848591058,0.00719369212766358,0.0765144733620585,0.0124901010230535,0.0634376987941322,0.00066521910849297,0.367996366710155
0.00209473590926461,0.0115330941338184,0.00800944074311245,0.0768871662866697,0.0121754337277465,0.0683829809436681,0.00066879636727793,0.377300425078908
0.0019214017836904,0.0103213184740431,0.00893245032128135,0.0772467533401068,0.0118743264206226,0.0732820386686288,0.000670736812641812,0.386423515472267
0.00175942253270817,0.00914634779109674,0.0099512859452328,0.0775782834716811,0.0115872595296337,0.0780902555288173,0.000670804871439391,0.395251445685838
0.00160877406382804,0.00801721724960225,0.0110545361336522,0.0778677874903584,0.0113144525617199,0.0827634544107029,0.000668819648788116,0.403670162011228
0.00146939810902895,0.00694213820679891,0.0122309315696174,0.0781025797115267,0.0110558906905331,0.0872586339257759,0.000664655937594192,0.411568067417862
0.00134121458547769,0.00592844881787326,0.0134694438164382,0.0782715314837266,0.0108113565934234,0.0915347156607766,0.000658244105308396,0.418838293483425
0.00122413227604143,0.0049825837258604,0.0147593630365427,0.0783653099921021,0.0105804661198538,0.0955532850489053,0.000649568881953932,0.425380875777908
0.00111805768411809,0.00411006182833192,0.016090354511416,0.0783765783435803,0.0103627064330823,0.0992793051587287,0.000638667113726756,0.431104785691491
0.00102290203580874,0.00331549075555205,0.0174524948154829,0.0783001544409399,0.0101574753715437,0.10268178081804,0.000625624587510775,0.435929764391834
0.000938586471338475,0.00260258637655428,0.0188362895389563,0.0781331254088322,0.00996412077300842,0.105734351531635,0.000610572059642817,0.439787893136441
0.000865045473945702,0.00197420538184892,0.020232675177233,0.0778749120846941,0.00978197827524236,0.108415795316219,0.000593680626814005,0.442624834495409
0.000802228569625949,0.00143238880371193,0.0216330079395068,0.077527277226892,0.00961040581555291,0.110710430281531,0.000575156561414512,0.444400696948546
0.000750100349588355,0.000978414211780695,0.0230290417838835,0.0770942731515696,0.00944881307163252,0.112608404028112,0.00055523572053404,0.445090504374061
0.000708638918689528,0.000612854224330853,0.0244128975090177,0.076582128579333,0.00929668452670277,0.114105860676773,0.000534177642527499,0.444684280775284
0.0006778329273182,0.00033563891414677,0.0257770247569265,0.0759990786820241,0.009153595518743,0.115204973665483,0.000512259461292462,0.443186777183256
0.000657677378921622,0.000146119724774639,0.0271141593024853,0.0753551447008808,0.00901922124915598,0.115913834650543,0.000489769782982436,0.440616865887131
0.000648168415583917,4.31326797693791e-05,0.0284172787426192,0.0746618689757831,0.00889333899898783,0.116246196384137,0.000467002672227344,0.437006617904844
0.000649297277923254,2.50589504449593e-05,0.0296795603290794,0.0739320093424882,0.00877582370728772,0.116221077344787,0.000444251881532828,0.432400082087259
0.000661043623809728,8.98812071753884e-05,0.0308943449377165,0.073179196718977,0.00866663701309602,0.115862243868646,0.000421805435819591,0.426851801621452
0.000683368376722061,0.000235234551337005,0.0320551108573178,0.0724175620323212,0.00856581016875411,0.115197588233154,0.000399940665197642,0.420425126695188
0.000716206254732666,0.00045845112744727,0.0331554601505629,0.0716613420779758,0.00847342177865375,0.114258419367065,0.000378919763905916,0.413190400341673
0.000759458107053914,0.000756597697262737,0.0341891189296559,0.0709244768020942,0.00838957183003629,0.113078681988193,0.000358985936600728,0.405223100757818
0.000812983173761015,0.00112650560054868,0.0351499514654867,0.0702202115712529,0.00831435373822512,0.111694122909905,0.000340360172774524,0.396602015357214
0.000876591396440023,0.0015647927783584,0.0360319870699932,0.0695607167064365,0.00824782604023714,0.110141428266586,0.000323238669390832,0.387407504430998
0.000950035938663677,0.00206787792182959,0.0368294583092832,0.0689567338552291,0.00818998507240496,0.108457359753999,0.000307790902938804,0.37771989564999
0.00103300611477371,0.00263198726791105,0.0375368492667543,0.0684172566827485,0.00814073972293523,0.106677919666047,0.000294158333871915,0.367618039468446
0.00112512096027987,0.00325315501402541,0.038148953061287,0.0679492526940552,0.00809988924464901,0.104837572707273,0.000282453711073359,0.357178048329644
0.00122592369162199,0.00392721869787186,0.038660938258331,0.0675574332377273,0.00806710507067016,0.102968548133609,0.000272760934305361,0.346472237430297
0.00133487728636019,0.00464981113463111,0.0390684237317362,0.0672440791351477,0.00804191751674693,0.101100241159272,0.00026513542593647,0.33556828054711
0.00145136138281732,0.00541635058938326,0.0393675605998707,0.0670089293265167,0.00802370813722612,0.0992587291947543,0.000259604954679172,0.324528590442472
0.0015746706806719,0.00622203078906396,0.0395551183749506,0.0668491390326954,0.00801170832269855,0.0974664159098665,0.00025617084400249,0.313409929113682
0.00170401501936164,0.00706181221669669,0.039628571451409,0.066759312049809,0.00800500450116158,0.0957418135498048,0.000254809493602644,0.30226324781311
0.00183852129248345,0.00793041597673508,0.0395861820968785,0.0667316089737738,0.00800255004536221,0.094099470859339,0.000255474146668217,0.291133748998746
0.00197723730533526,0.00882232140250149,0.0394270770039103,0.0667559296296295,0.00800318369287246,0.0925500502187543,0.000258096843527022,0.280061150729197
0.00211913761463964,0.00973176848414396,0.0391513156717017,0.0668201642749215,0.00800565393124254,0.0911005532658528,0.000262590505819813,0.269080119973952
0.00226313132456952,0.0106527661210317,0.0387599497249112,0.0669105048956066,0.0080086484019959,0.0897546896376096,0.000268851091793216,0.258220830999436
0.00240807173974766,0.0115791071457522,0.0382550721040485,0.0670118055224008,0.00801082704634101,0.0885133788466822,0.000276759761992879,0.247509602663798
0.00255276768999643,0.0125043910234608,0.0376398539371255,0.0671079792064039,0.00801085756498993,0.0873753710152162,0.000286185005441463,0.236969573433676
0.00269599627998039,0.013422055077768,0.0369185660603114,0.0671824191943889,0.00800745181368978,0.0863379684212297,0.000296984697167675,0.226621382135346
0.00283651680530944,0.0143254149830991,0.0360965825629198,0.0672184327256871,0.00799940195099345,0.0853978265811468,0.000309008079612581,0.216483831738647
0.0029730855980037,0.0152077150206903,0.0351803651262914,0.0671996771378222,0.00798561538927547,0.0845518106516935,0.000322097673085887,0.206574518413318
0.00310447157509379,0.0160621881492286,0.0341774285088928,0.067110588696179,0.0079651477371342,0.0837978797660193,0.000336091119893566,0.196910405805652
0.0032294722188387,0.0168821252894724,0.0330962884765941,0.0669367938123428,0.00793723284445792,0.0831359681145526,0.000350822962539629,0.187508318583297
0.00334692962135022,0.0176609525153206,0.0319463932543879,0.0666654902543639,0.00790130882337244,0.0825688280330827,0.000366126360694511,0.17838532893553
0.00345574616398114,0.0183923142512663,0.0307380385617056,0.0662857847382818,0.00785703879935803,0.0821027990296717,0.000381834762437985,0.16955901828403
0.00355489942962835,0.0190701601550668,0.0294822657704491,0.0657889746912012,0.00780432532825213,0.0817484685921422,0.000397783552382723,0.161047610273989
0.00364345604536177,0.0196888331357843,0.0281907433169611,0.0651687657347562,0.00774331784204061,0.0815211954365365,0.000413811694939465,0.152869984319706
0.00372058427125094,0.020243155949362,0.0268756328055454,0.0644214211757028,0.00767441300332887,0.081441472146846,0.000429763378612032,0.145045586280741
0.00378556522722753,0.0207285140222414,0.0255494425647059,0.0635458436960265,0.00759824827152291,0.0815351095392702,0.000445489655863822,0.13759425226355
0.00383780262933844,0.021140932473205,0.0242248721130186,0.0625435908795239,0.00751568914887328,0.0818332272130636,0.00046085006149354,0.130535957540802
0.00387683079967981,0.0214771454782139,0.0229146507221601,0.0614188252515847,0.007427810454674,0.0823720346037062,0.000475714177545615,0.12389050136374
0.00390232063877887,0.0217346558503786,0.0216313724754812,0.060178198890842,0.00733587183191931,0.0831923897035442,0.000489963103323704,0.117677140294664
0.00391408330014299,0.0219117821563587,0.0203873298833938,0.0588306745210095,0.00724128780850649,0.0843391312413385,0.000503490792134043,0.111914184977682
0.0039120714657245,0.022007690657477,0.0191943485060676,0.0573872886972428,0.00714559310538772,0.0858601924218294,0.000516205226161737,0.106618576404492
0.00389637831222231,0.0220224102467962,0.0180636257370549,0.055860866628338,0.00705040433154733,0.0878055162608746,0.000528029405335856,0.101805457532959
0.0038672343914399,0.0219568300089415,0.0170055774356971,0.054265700824971,0.00695737954240563,0.0902258001697808,0.000538902117291439,0.097487755124905
0.00382500265271701,0.021812680416227,0.016029696142363,0.0526172062127164,0.00686817723436456,0.0931710992814989,0.000548778443487524,0.0936757854289304
0.00377017173048874,0.0215924998858379,0.0151444241021086,0.0509315628089575,0.00678441618281708,0.0966893178405209,0.00055762995945635,0.0903768959545928
0.00370334754184375,0.0212995882155982,0.0143570435172197,0.0492253552040435,0.00670763723389901,0.100824620790186,0.000565444607418813,0.0875951536240653
0.00362524327725004,0.0209379478216452,0.0136735857251955,0.047515217240971,0.00663926790109456,0.105615803603384,0.000572226246863859,0.0853310864141761
0.00353666799012914,0.0205122135491594,0.0130987604392985,0.0458174902566674,0.00658059043032706,0.111094664863249,0.000577993910519923,0.0835814818209251
0.00343851412526414,0.0200275722625159,0.0126359056861228,0.0441479033603123,0.00653271384473174,0.11728443078175,0.000582780798991643,0.0823392433427795
0.00333174440576293,0.0194896741340506,0.0122869585662683,0.0425212839818125,0.00649655034477826,0.12419828235214,0.000586633034771741,0.08159330680881
0.00321737847992024,0.0189045382135789,0.012052446467957,0.0409513060845105,0.00647279632498539,0.131838033777936,0.000589608179866605,0.0813286208563927
0.00309647961535956,0.0182784552294661,0.0119314979438283,0.0394502820038427,0.00646191818679535,0.140193005926912,0.000591773520056632,0.0815261984683037
0.00297014159362286,0.0176178904939161,0.0119218721821455,0.0380290020424664,0.00646414308350739,0.149239132607328,0.000593204135673391,0.0821632476378154
0.0028394758845014,0.0169293892264983,0.0120200058831767,0.036696624006877,0.00647945471498712,0.158938331706794,0.000593980804589176,0.0832133881869111
0.00270559917583285,0.0162194858022902,0.0122210763289937,0.0354606130407479,0.00650759425997451,0.169238167533492,0.000594187804692695,0.0846469587598992
0.00256962137556094,0.0154946178178632,0.0125190793642788,0.0343267304582333,0.00654806643403023,0.180071824571807,0.000593910687947931,0.0864314139233746
0.0024326342564145,0.014761045648749,0.012906920727851,0.0332990686632992,0.00660015044767431,0.19135840604426,0.000593234084244305,0.0885318069884107
0.00229570094368569,0.0140247782567271,0.0133765187737409,0.0323801274840983,0.00666291538064201,0.203003563156331,0.000592239578116557,0.0909113499945207
0.00215984642019676,0.0132915062255295,0.013918916465784,0.0315709255865233,0.00673523934257517,0.214900452907686,0.00059100370092819,0.0935320380287636
0.00202604914116695,0.0125665431854134,0.0145244007823209,0.0308711395981082,0.00681583181393607,0.226931014272227,0.00058959609165091,0.0963553205881209
0.00189523378043885,0.0118547767825859,0.0151826281557004,0.0302792633635774,0.00690325869849188,0.23896754485872,0.000588077889577894,0.0993427990100417
0.00176826511983894,0.0111606300673624,0.0158827549902602,0.0297927802062205,0.0069959697855978,0.250874553297149,0.000586500422580602,0.102456927305098
0.00164594312343987,0.0104880336432153,0.0166135723558713,0.0294083419001968,0.00709232843770348,0.262510856727954,0.000584904240111381,0.10566169434922
0.00152899925772069,0.00984040835609012,0.0173636435768026,0.0291219489449807,0.00719064332752799,0.273731887553425,0.000583318514557775,0.108923267894812
0.00141809409116565,0.0092206579272926,0.0181214430282941,0.0289291273354509,0.00728920191697169,0.284392167936096,0.000581760809556968,0.112210584262537
0.00131381614467576,0.0086311707612741,0.0188754944366143,0.0288250970022324,0.00738630509663899,0.294347902538448,0.000580237197619937,0.115495870458147
0.00121668191209111,0.00807383012349432,0.0196145073253155,0.0288049263511578,0.00748030206870391,0.303459628772953,0.000578742701990397,0.118755086100406
0.00112713693258232,0.00755003191724236,0.020327510696828,0.0288636665628747,0.0075696242972907,0.311594853257568,0.000577262036592923,0.121968270234244
0.00104555775138832,0.00706070933592141,0.0210039832806287,0.0289964595991208,0.00765281725827169,0.318630599456569,0.000575770619372262,0.125119775830352
0.000972254568005498,0.00660636367836444,0.0216339794622762,0.0291986155022218,0.00772856881951342,0.324455796747574,0.000574235832544256,0.128198376828874
0.000907474371134957,0.00618710054341184,0.0222082493448843,0.0294656571459381,0.00779573335357629,0.328973453102708,0.000572618491755911,0.131197239550514
0.000851404384467206,0.00580267043214621,0.0227183508017682,0.0297933333003098,0.00785335104706633,0.332102566611349,0.000570874465629188,0.134113759750292
0.000804175660005273,0.00545251249559377,0.0231567513486433,0.0301776027663755,0.00790066217697954,0.333779737584436,0.00056895637273164,0.136949275029331
0.000765866643195254,0.00513579989391237,0.0235169181793596,0.0306145927824264,0.00793711620665791,0.333960439181309,0.000566815286864998,0.139708666433651
0.000736506533485345,0.004851485124505,0.0237933954424869,0.031100534484492,0.00796237541526316,0.332619900515228,0.000564402400479523,0.142399861677416
0.00071607830663685,0.0045983437807342,0.023981868338688,0.0316316784386209,0.00797631273840332,0.32975356622065,0.000561670618628924,0.145033249207729
0.000704521337552447,0.00437501549941771,0.0240792134927447,0.0322041946175859,0.00797900380625418,0.325377120419628,0.000558576069053876,0.147621012621765
0.000701733633647746,0.00418004126669378,0.0240835343655205,0.0328140630269541,0.00797071370888859,0.319526090420644,0.000555079508864176,0.150176399768503
0.000707573731909214,0.0040118966449475,0.0239941799933437,0.0334569627123752,0.00795187952486534,0.3122550640605,0.000551147591836547,0.152712948196177
0.000721862317168065,0.0038690207102152,0.0238117456458736,0.0341281675544719,0.00792308986578626,0.303636557330926,0.000546753953033404,0.15524369568869
0.000744383605436374,0.00374984050355402,0.0235380549258691,0.0348224568680531,0.00788506257459124,0.293759562966378,0.000541880077399872,0.157780408685753
0.000774886534858152,0.00365279078624883,0.023176123897743,0.0355340475164519,0.00783862154936629,0.282727811259785,0.000536515939303932,0.160332860406807
0.000813085818423266,0.00357632904883104,0.0227301084459963,0.0362565525176445,0.00778467366096729,0.27065778479366,0.000530660420501558,0.162908185507264
0.000858662921323388,0.00351894603124735,0.0222052358679545,0.036982969388848,0.00772418677988396,0.257676542290944,0.000524321525986289,0.165510333550977
0.00091126702285094,0.00347917233726061,0.0216077211371403,0.0377056998072494,0.00765816983571775,0.243919416422234,0.000517516414729515,0.16813964169234
0.000970516010956997,0.00345558196284106,0.0209446682705168,0.0384166005468978,0.00758765555971039,0.229527651961796,0.000510271245801601,0.170792545995549
0.00103599754628795,0.00344679365134352,0.0202239579806243,0.0391070642079129,0.0075136862652146,0.214646043726385,0.000502620822419149,0.173461448392328
0.00110727022753841,0.00345147093647672,0.019454123790668,0.0397681271619442,0.00743730279859117,0.199420622857187,0.00049460801198695,0.176134751058505
0.00118386488585276,0.00346832158508007,0.018644219437897,0.0403906014961033,0.00735953655474346,0.18399643139739,0.000486282931722011,0.178797062092027
0.00126528601797168,0.0034960969786907,0.017803680312427,0.0409652274907804,0.0072814041459802,0.168515420056341,0.000477701910774019,0.181429567140398
0.00135101333442039,0.00353359180919445,0.0169421811203122,0.041482843120247,0.0072039040770824,0.153114500689919,0.000468926261163566,0.184010552994067
0.00144050338000655,0.00357964429957508,0.0160694916684497,0.0419345669659091,0.0071280147416146,0.137923781716518,0.00046002090072965,0.186516062838775
0.00153319120000992,0.00363313699001088,0.0151953329083772,0.0423119905348371,0.00705469317401416,0.123065010577039,0.000451052865651499,0.188920659465568
0.0016284920624261,0.00369299796454689,0.0143292358273158,0.0426073750390247,0.00698487413838035,0.10865024221704,0.000442089737234413,0.191198271205105
0.00172580327285681,0.0037582022591561,0.0134804060389167,0.0428138461091798,0.00691946916240526,0.0947807465775081,0.000433198005402341,0.193323093003165
0.00182450610525382,0.00382777311637461,0.0126575967548236,0.0429255782827575,0.00685936496589549,0.0815461615504188,0.000424441403418152,0.195270509672642
0.00192396782547272,0.00390078275519751,0.0118689922869103,0.0429379605357622,0.00680542054843914,0.0690238911668209,0.000415879266080076,0.197018002856608
0.00202354375697839,0.00397635240710956,0.0111221037385063,0.0428477351331014,0.00675846223451586,0.0572787425144482,0.000407564976380185,0.198546003531375
0.00212257935885926,0.00405365149775084,0.0104236783165681,0.0426531043744204,0.00671927626199144,0.0463627896750317,0.000399544565426041,0.199838659072092
0.00222041233875939,0.00413189596240351,0.0097796236266202,0.0423538025969477,0.00668859891794909,0.0363154490453632,0.000391855518194059,0.200884494512836
0.0023163748714679,0.00421034569359223,0.00919494822313307,0.0419511329335888,0.00666710460567401,0.0271637476446848,0.000384525825767485,0.201676956675155
0.00240979599964636,0.00428830103014233,0.00867371946195127,0.0414479688429481,0.00665539240988173,0.0189227642203119,0.000377573320793653,0.202214832787811
0.00250000423935467,0.00436509815907252,0.0082190393029985,0.0408487196796041,0.0066539716499362,0.0115962219417481,0.000371005331793698,0.202502531396365
0.00258633034294275,0.00444010343160525,0.00783303821378529,0.0401592595222197,0.00666324673796399,0.0051772110321312,0.000364818685518926,0.202550209477994
0.00266811015377044,0.00451270685019674,0.00751688684564845,0.0393868201757127,0.00668350164060554,-0.000350980331970657,0.000359000071996152,0.20237373266567
0.0027446875348508,0.00458231524597204,0.0072708247099093,0.0385398520244006,0.00671488441299829,-0.00501394824024284,0.000353526769342144,0.201994465091628
0.00281541743678754,0.00464834581104258,0.00709420464273328,0.037627859048112,0.0067573925185222,-0.00884518930226544,0.00034836770841656,0.20143889748981
0.00287966924343412,0.00471022061308785,0.00698555146113327,0.0366612158233833,0.00681085985077045,-0.0118850712899298,0.000343484840656844,0.200738132130236
0.00293683054824422,0.00476736258118633,0.00694263289983897,0.0356509742346773,0.0068749464562305,-0.0141797779692614,0.00033883476048995,0.199927246929525
0.00298631144876175,0.00481919335814406,0.00696254061524546,0.034608666367858,0.00694913188292718,-0.0157802473220454,0.00033437052891167,0.199044557513051
0.00302754935701434,0.0048651333777264,0.00704177876052738,0.0335461088656185,0.00703271285367209,-0.0167411214264768,0.00033004364147105,0.198130789852497
0.00306001429365559,0.00490460447311721,0.00717635754077634,0.0324752134473306,0.00712480563943737,-0.0171197248043292,0.00032580607554635,0.1972281742349
0.00308321467345589,0.00493703521042882,0.00736188933594521,0.0314078080047647,0.00722435320910801,-0.016975086101198,0.00032161234275799,0.196379475075892
0.00309670365758554,0.00496186897483746,0.00759368532810886,0.0303554722578671,0.00733013703643165,-0.0163670157006987,0.000317421473560959,0.195626977969993
0.00310008619574209,0.00497857465846631,0.00786685086500623,0.0293293911738666,0.00744079335151141,-0.0153552494701333,0.000313198873534898,0.195011462223911
0.00309302686948971,0.00498665965335037,0.00817637783416074,0.028340228247471,0.00755483359881827,-0.0139986664970274,0.000308918006684474,0.194571191074904
0.00307525856014766,0.00498568475958133,0.00851723220646207,0.0273980195395798,0.00767066886637656,-0.0123545866040671,0.000304561870460308,0.194340950731124
0.00304659183531341,0.00497528055970593,0.00888443498095622,0.0265120883759492,0.00778663804340416,-0.0104781517739243,0.00030012422503729,0.19435116322411
0.0030069248522677,0.0049551647335375,0.00927313512483681,0.0256909800113916,0.00790103941046647,-0.00842179430628291,0.000295610533502905,0.194627091037752
0.00295625354546565,0.00492515963838821,0.00967867359087111,0.0249424153305193,0.00801216523099667,-0.00623479320541572,0.000291038573727135,0.195188148564722
0.00289468188055123,0.00488520929166301,0.0100966379147945,0.024273262486967,0.00811833866217507,-0.00396291872414094,0.000286438698887622,0.196047337147655
0.00282243198605926,0.00483539480278939,0.01052290710075,0.0236895248771362,0.00821795195258413,-0.00164816324656409,0.000281853744873506,0.197210824218907
0.00273985398155083,0.00477594738429889,0.0109536864079404,0.023196342968672,0.00830950457872982,0.000671445029173437,0.000277338600385123,0.198677689354272
0.00264743527689746,0.00470725829137955,0.0113855313594752,0.0227980069286122,0.00839163984044272,0.00296195063866614,0.00027295946249695,0.200439857790172
0.00254580901720451,0.00462988530597685,0.0118153601699246,0.0224979772334599,0.00846317852718314,0.00519350773908332,0.000268792796085487,0.202482234993492
0.00243576125044259,0.00454455558694045,0.0122404540864162,0.0222989113158325,0.00852314854229555,0.00734035202899626,0.000264924009941135,0.204783048336466
0.00231823637273594,0.00445216475856602,0.0126584458097382,0.0222026953537828,0.00857080972707728,0.00938071466436846,0.000261445865648026,0.207314396168517
0.00219434046799033,0.00435377200871907,0.0130672969717685,0.0222104810976599,0.00860567340789559,0.0112966854447672,0.000258456646982872,0.21004299827702
0.00206534226593008,0.00425059088023164,0.0134652662655225,0.0223227278507286,0.00862751623850051,0.0130740329777648,0.000256058132270411,0.212931133021278
0.00193267153746415,0.0041439755142764,0.0138508699679552,0.0225392492686361,0.00863638771806985,0.01470198993411,0.000254353424293781,0.215937737315589
0.00179791477295275,0.00403540233302954,0.014222836358591,0.0228592636929525,0.00863261063220785,0.0161730116895663,0.000253444697713002,0.219019637702083
0.00166280795540638,0.00392644745090379,0.0145800554839912,0.0232814457402568,0.00861677386378328,0.0174825164729772,0.000253430920534242,0.222132872268459
0.00152922624626652,0.00381876038517879,0.0149215261429589,0.0238039761964772,0.00858971751626325,0.018628614590272,0.000254405596126886,0.225234055171932
0.00139917050440765,0.00371403480778854,0.015246302652687,0.0244245870469178,0.00855251088607686,0.0196118335208831,0.00025645456162428,0.228281733000471
0.0012747507178105,0.00361397708566221,0.0155534445394859,0.0251405987860496,0.00850642428954371,0.0204348448275662,0.000259653871088642,0.231237686521837
0.00115816656900495,0.0035202732581032,0.0158419724920272,0.0259489480036549,0.0084528959198521,0.0211021978675267,0.000264067787744493,0.234068138692834
0.00105168542348659,0.00343455505297802,0.0161108336092513,0.0268462044368303,0.00839349474822036,0.0216200642668632,0.000269746908844204,0.236744833988567
0.000957618028373809,0.00335836560262321,0.0163588782900686,0.0278285777619769,0.00832988021133283,0.0219959961442095,0.00027672644948054,0.239245951358094
0.000878292211236246,0.0032931256235865,0.0165848503185902,0.0288919148030205,0.00826375931726999,0.0222387001625327,0.000285024717053919,0.241556808987359
0.000816024921253619,0.0032401009018943,0.0167873909253813,0.0300316873816039,0.0081968418933737,0.0223578285342509,0.000294641813681774,0.243670323289369
0.000773093029557689,0.00320037194138358,0.016965056820241,0.0312429706004413,0.00813079490604231,0.0223637870300098,0.000305558606043351,0.245587198454921
0.000751703362034724,0.00317480658679868,0.0171163513901611,0.0325204118606219,0.00806719701852296,0.0222675590633992,0.000317735997728374,0.247315841094631
0.000753962454085562,0.00316403634660895,0.0172397674984653,0.0338581922828159,0.00800749474477563,0.0220805443699531,0.000331114528494917,0.248872009882107
0.000781846495479921,0.00316843703329634,0.0173338396983876,0.0352499838334857,0.00795296163596662,0.0218144107380252,0.000345614314299311,0.250278216406524
0.000837171893765818,0.00318811421769548,0.0173972032725775,0.0366889067259468,0.00790466183681824,0.0214809574966858,0.000361135336505265,0.251562890400398
0.000921566843759262,0.00322289385195345,0.0174286573850698,0.0381674920812083,0.00786341906999109,0.0210919896736339,0.000377558087162285,0.252759320621461
0.0010364442558882,0.00327231825312547,0.017427229773058,0.039677654161454,0.00782979180460062,0.0206592015223373,0.000394744576558602,0.253904391124597
0.00118297636418499,0.00333564748708182,0.017392240690271,0.0412106750895999,0.00780405520805036,0.0201940674843066,0.000412539707172911,0.255037149276477
0.00136207129873194,0.00341186607949787,0.0173233639885114,0.0427572037612718,0.00778619045350279,0.019707738291913,0.000430773013939379,0.256197258921094
0.00157435187929953,0.00349969490604507,0.0172206830123312,0.0443072701345918,0.00777588194767818,0.0192109403632347,0.000449260764672932,0.257423401802339
0.0018201368854536,0.00359760806338139,0.0170847385031886,0.0458503161185087,0.00777252295452061,0.0187138777077041,0.00046780840662251,0.258751688978436
0.00209942508176329,0.00370385448399457,0.0169165656097973,0.0473752445719647,0.00777522987309966,0.018226136720987,0.00048621333422128,0.260214136932117
0.0024118823030371,0.00381648402394562,0.0167177177232946,0.048870488175986,0.00778286510290039,0.0177565949390884,0.000504267936947198,0.261837259410539
0.00275683190090317,0.00393337771721374,0.0164902759652134,0.0503240999064629,0.00779406806594649,0.0173133347477098,0.000521762865147146,0.263640826106553
0.00313324880072024,0.00405228184420961,0.0162368443052468,0.0517238663279559,0.00780729363223722,0.0169035626195889,0.00053849043289742,0.265636837868213
0.00353975735428496,0.00417084538724858,0.0159605310351303,0.0530574437710711,0.00782085696023808,0.0165335344616607,0.000554248068224663,0.267828761225151
0.00397463315594519,0.00428666031925521,0.0156649174016848,0.0543125155268015,0.00783298360487753,0.0162084882327246,0.000568841724401497,0.270211053043232
0.00443580902198942,0.00439730399557476,0.0153540137981356,0.0554769658799227,0.00784186358602923,0.015932585764148,0.000582089179160998,0.272768992696647
0.00492088537978705,0.00450038275884039,0.0150322037089006,0.0565390651287418,0.00784570786086263,0.0157088662671803,0.00059382316512968,0.275478825531847
0.00542714532520224,0.00459357579589732,0.0147041759788276,0.0574876593544715,0.00784280535124711,0.0155392140656356,0.000603894284773344,0.278308208154668
0.00595157453654919,0.00467467831953763,0.0143748467732911,0.0583123595602233,0.00783157855759294,0.0154243426277157,0.000612173657605096,0.281216936285708
0.00649088606106563,0.00474164326103736,0.0140492734690114,0.0590037263993644,0.00781063595730129,0.0153637963031889,0.000618555230123672,0.284157930628809
0.0070415497747149,0.00479262079889312,0.0137325633192758,0.0595534482370071,0.00777881977161369,0.0153559706452022,0.000622957670275386,0.287078452868048
0.00759982615281311,0.00482599514033801,0.013429779822706,0.0599545107719138,0.00773524812839303,0.015398151819833,0.000625325780321308,0.28992151855602
0.00816180390680123,0.00484041794304433,0.0131458493325688,0.0602013552870565,0.00767935095540575,0.0154865752531298,0.000625631390131544,0.292627463750202
0.00872344102337141,0.00483483763098606,0.0128854699904905,0.0602900206737605,0.00761089896201295,0.0156165032593016,0.000623873725501695,0.29513561132189
0.00928060875769694,0.00480852378590244,0.0126530248397894,0.0602182636208399,0.00753002490821739,0.0157823209320642,0.00062007926928941,0.297385977855806
0.00982913814723739,0.00476108591055288,0.012452500866355,0.059985652423006,0.0074372363724436,0.015977649107948,0.000614301135442074,0.299320965044453
0.0103648685753599,0.00469248612695469,0.0122874155687358,0.0595936320654759,0.00733341956962645,0.016195472774501,0.000606617961377101,0.300886987866804
0.0108836977511599,0.00460304566791031,0.0121607524329117,0.0590455605428992,0.00721983429944402,0.0164282829096584,0.000597132317496724,0.302036000975831
0.0113816321374386,0.00449344519655275,0.0120749064417835,0.0583467177361625,0.00709810059035274,0.0166682293472896,0.000585968648600741,0.302726888993989
0.0118548364892959,0.00436471897292548,0.0120316405687397,0.0575042878331822,0.00697017784526638,0.0169072817531345,0.000573270792857491,0.302926682048444
0.0122996810218177,0.00421824281898503,0.0120320541134128,0.0565273144353309,0.00683833722196928,0.0171373951087574,0.000559199154462343,0.302611550074271
0.0127127849094331,0.00405571592316006,0.012076563653418,0.0554266258904668,0.00670512779087744,0.0173506754838814,0.000543927621976797,0.301767530080951
0.0130910552532976,0.00387913677300919,0.0121648971499727,0.0542147285104051,0.00657333697281854,0.0175395416992762,0.00052764031861559,0.300390953673405
0.0134317211512988,0.0036907737681381,0.012296101324342,0.0529056670289816,0.00644594589895465,0.0176968788420465,0.000510528253459159,0.298488562717891
0.0137323628258648,0.00349313120011941,0.0124685620884145,0.0515148540228762,0.00632608054161873,0.0178161803271248,0.000492785933965399,0.296077320925123
0.0139909356993357,0.00328891125426562,0.0126800377678531,0.0500588719514058,0.00621695962475282,0.0178916759619954,0.00047460800547073,0.293183939851858
0.0142057889192142,0.00308097264143503,0.0129277049571896,0.0485552519816519,0.00612184034362113,0.0179184438421598,0.000456185994352384,0.289844136100105
0.0143756775679534,0.00287228654161372,0.0132082168288998,0.047022232624306,0.00604396277078644,0.0178925036876071,0.000437705238777247,0.286101632020964
0.0144997679459931,0.00266589067963461,0.0135177734110491,0.0454784998339345,0.00598649362584326,0.0178108889607856,0.000419342088230361,0.282006917946417
0.0145776358248741,0.00246484244015739,0.0138522027629024,0.0439429102979453,0.00595247003402615,0.0176716955292603,0.000401261438631353,0.277615809950103
0.0146092582164186,0.00227217190248232,0.0142070512897955,0.0424342011803033,0.00594474400684481,0.0174741057800951,0.00038361464857645,0.272987855524169
0.0145949997484783,0.00209083558031911,0.0145776808698118,0.0409706916640813,0.00596592851058759,0.017218388492346,0.000366537862394947,0.268184652198552
0.014535594944335,0.00192367157398443,0.0149593701483559,0.0395699831986447,0.00601834599235455,0.0169058758701716,0.000350150750250608,0.263268145847488
0.0144321274465732,0.00177335678975644,0.0153474172494916,0.0382486655855498,0.00610398008273315,0.0165389195059557,0.000334555662980363,0.258298967758814
0.0142860067097823,0.00164236681657546,0.0157372410401955,0.0370220349739821,0.00622443107034469,0.0161208267459486,0.000319837188962218,0.253334861289275
0.0140989423524357,0.00153293895980295,0.0161244777339538,0.035903828805406,0.00638087576914213,0.015655778699936,0.00030606209243718,0.248429245291666
0.0138729163644712,0.00144703882868125,0.0165050691893949,0.0349059827729428,0.00657403248244935,0.0151487314886713,0.000293279607285297,0.243629959825409
0.0136101535823826,0.00138633078277885,0.0168753392878883,0.0340384155956728,0.00680413175068803,0.0146053030966211,0.000281522055160656,0.238978235865403
0.013313091101332,0.00135215248182684,0.0172320554957238,0.0333088480056412,0.00707089339775713,0.0140316490065463,0.000270805748562591,0.234507922599438
0.0129843474742313,0.00134549375627153,0.0175724739138904,0.0327226621262503,0.00737351021664679,0.0134343302968383,0.000261132128618602,0.230244993755116
0.012626692581995,0.00136698000957535,0.0178943673428436,0.0322828062610413,0.00771063860399364,0.0128201778795726,0.000252489082259532,0.226207340436504
0.0122430189069016,0.00141686035493154,0.0181960366268352,0.0319897486318308,0.00808039650589982,0.0121961561155463,0.000244852388103658,0.222404844199091
0.0118363145699713,0.00149500065786638,0.0184763055267878,0.0318414823091652,0.00848036901462293,0.0115692285684398,0.000238187249059649,0.218839712348527
0.011409637948001,0.00160088160031544,0.0187344990996452,0.0318335822446746,0.0089076217622173,0.0109462284512948,0.000232449873406167,0.215507049448399
0.0109660932181034,0.00173360182474313,0.0189704058610846,0.03195931377581,0.00935872202983445,0.0103337363040788,0.00022758906307971,0.212395634973749
0.0105088060474653,0.00189188617688762,0.0191842250014422,0.0322097905765313,0.00982976744453848,0.00973796744526716,0.000223547768796541,0.209488875547182
0.0100408988809031,0.00207409904040793,0.0193765012132217,0.0325741789759608,0.0103164222559289,0.00916467163517249,0.000220264582765399,0.206765898623448
0.00956546573861799,0.00227826273711783,0.0195480507930983,0.0330399445691268,0.0108139612937002,0.00861904711592321,0.00021767515414082,0.204202749901651
0.00908554690401909,0.00250208093929427,0.0196998832041403,0.0335931357495619,0.0113173216138822,0.00810567076035547,0.00021571351977429,0.201773649246157
0.00860410413416095,0.00274296698700743,0.0198331220564487,0.0342186973455489,0.0118211615154872,0.00762844554191837,0.000214313341595799,0.199452255178033
0.00812399693670871,0.00299807691301545,0.0199489288266135,0.0349008065279337,0.0123199262926675,0.00719056603037129,0.000213409042420766,0.197212890602791
0.00764796016535079,0.00326434687104063,0.0200484322088633,0.0356232228329721,0.0128079199829715,0.00679450215564336,0.000212936838862596,0.195031691368509
0.00717858302371005,0.00353853456167035,0.0201326658882587,0.0363696443617034,0.013279382433235,0.00644200103785121,0.000212835676024899,0.192887650728747
0.00671828964920075,0.00381726413667649,0.0202025174233404,0.0371240627141593,0.0137285710934917,0.00613410623934286,0.00021304806725079,0.190763542391635
0.00626932165054471,0.00409707392630785,0.0202586904946662,0.0378711096900904,0.0141498469408002,0.00587119337036609,0.000213520837197144,0.188646708756526
0.0058337231493719,0.00437446622224536,0.0203016819224916,0.0385963888845757,0.0145377637380187,0.00565302058605498,0.000214205763634181,0.18652969785655
0.00541332893583137,0.00464595830516156,0.0203317737726332,0.0392867846630335,0.0148871593927767,0.00547879213889557,0.000215060109805284,0.184410726893627
0.00500975626662215,0.0049081339052009,0.0203490397781874,0.0399307397675402,0.0151932475548576,0.00534723281048851,0.000216047034070757,0.182293949226643
0.00462440064003311,0.00515769425056344,0.0203533644397309,0.040518492162334,0.0154517070294809,0.00525667078506301,0.000217135863881953,0.180189507355287
0.0042584356258645,0.00539150774001581,0.0203444727723556,0.0410422626906046,0.0156587663337932,0.00520512638017608,0.000218302228910454,0.178113364973013
0.00391281654819882,0.005606657157764,0.0203219687181519,0.04149638762646,0.0158112808456833,0.00519040402819695,0.000219528056983126,0.176086923649743
0.00358828754195988,0.00580048338268413,0.0202853804472637,0.0418773934641026,0.0159068004180441,0.00521018498966364,0.000220801438950234,0.174136440795325
0.00328539127532147,0.00597062474257781,0.020234210737225,0.0421840140769344,0.0159436258800541,0.00526211842495414,0.000222116365218092,0.172292271723638
0.00300448051069664,0.00611505142494051,0.0201679901119393,0.0424171515264492,0.0159208532450511,0.00534390856363869,0.000223472337300532,0.170587957880251
0.00274573070011788,0.00623209453171045,0.0200863297639969,0.0425797814194227,0.0158384044143773,0.00545339569477069,0.000224873867175284,0.169059179651755
0.00250915296268854,0.00632046934443952,0.0199889711224879,0.0426768038973213,0.0156970427861545,0.00558862859883745,0.000226329890860585,0.167742593433355
0.00229460701129681,0.00637929223791043,0.0198758294529512,0.0427148434720349,0.015498372080975,0.00574792609880951,0.000227853133474623,0.166674580491341
0.00210181379071107,0.00640809070544553,0.019747029853257,0.042702004246544,0.0152448173027024,0.0059299257779167,0.000229459465935425,0.165889945667418
0.00193036767615315,0.00640680622727961,0.0196029350573911,0.0426475900478089,0.0149395878737412,0.00613361852705667,0.00023116728772579,0.165420612193421
0.00177974806517933,0.00637579010486605,0.0194441651627111,0.0425618003399526,0.0145866241541936,0.00635836825541188,0.000232996960751961,0.16529436117584
0.00164933020005537,0.00631579272141469,0.0192716094346896,0.0424554122212189,0.0141905292865067,0.0066039165918521,0.000234970310578662,0.165533660307966
0.00153839515780213,0.00622794682042337,0.0190864298197767,0.0423394577216127,0.0137564883440042,0.00687037256423017,0.000237110202224238,0.166154620175513
0.00144613909290896,0.006113745284876,0.0188900554094774,0.0422249052876464,0.0132901764389313,0.00715818722545149,0.000239440186574995,0.167166111609415
0.00137168193899219,0.00597501373620448,0.0186841673394465,0.0421223544558901,0.0127976574157772,0.00746811339354062,0.000241984201053263,0.168569072642972
0.00131407582436009,0.00581387827229715,0.018470674351345,0.0420417524553642,0.0122852751507825,0.00780115121640268,0.000244766297217787,0.170356026749149
0.00127231343124251,0.00563272883412547,0.0182516801350054,0.0419921403432918,0.0117595400216737,0.00815848099906173,0.000247810361903408,0.172510826042849
0.00124533647172969,0.00543417892434115,0.018029444242364,0.0419814344204839,0.0112270135278205,0.00854138540413473,0.000251139799772145,0.17500862563575
0.00123204439890865,0.00522102259009257,0.0178063385480758,0.0420162468639267,0.0106941941729586,0.00895116353386407,0.000254777153704858,0.177816087588978
0.00123130341494958,0.00499618964700772,0.01758480083288,0.042101748193986,0.0101674075316237,0.00938903941701911,0.000258743651735428,0.180891805195008
0.00124195578480262,0.00476270002591018,0.0173672863662086,0.042241573087516,0.00965270296461179,0.0098560672496019,0.000263058678485214,0.18418693335053
0.00126282943210911,0.00452361792012186,0.0171562178914128,0.0424377696523368,0.00915575888607499,0.0103530357373353,0.000267739169639256,0.187646009554826
0.0012927477774591,0.00428200624795248,0.0169539343894454,0.042690790468737,0.00868179800066703,0.0108803741416896,0.00027279892528245,0.191207951057591
0.00133053975838866,0.0040408819136235,0.0167626393168037,0.0429995221888355,0.00823551359143605,0.0114380629656338,0.000278247844723937,0.194807214529727
0.00137504993011183,0.00380317242413913,0.0165843494831182,0.0433613499349508,0.00782100772823615,0.0120255524066066,0.000284091103742218,0.198375103183262
0.00142514848954472,0.00357167452663854,0.01642084610285,0.0437722530314901,0.00744174213891838,0.0126416915848291,0.000290328316388845,0.201841201123395
0.00147974101794889,0.00334901559180089,0.0162736295622465,0.0442269291849058,0.00710050238111201,0.0132846711575798,0.00029695273734109,0.205134906298448
0.00153777771929925,0.00313761842732458,0.0161438790063499,0.0447189444285249,0.00679937580442612,0.0139519815143425,0.000303950561493916,0.20818702498109
0.00159826194585163,0.00293967007389552,0.0160324173646939,0.0452409054230151,0.00653974355097976,0.0146403884457854,0.000311300369652218,0.210931385434229
0.00166025784451562,0.00275709500619769,0.0159396823623073,0.0457846490888189,0.00632228649870688,0.015345927874131,0.000318972762919677,0.213306427030576
0.00172289701471229,0.00259153308397359,0.0158657043621971,0.0463414430700983,0.00614700465420599,0.0160639207641578,0.000326930224788574,0.215256723236249
0.00178538411876433,0.00244432253616316,0.0158100922145215,0.0469021901291961,0.00601324910815419,0.0167890086750932,0.000335127243603787,0.216734401651432
0.0018470014019488,0.00231648816876306,0.0157720282990321,0.0474576303019507,0.00591976532184214,0.0175152097433021,0.000343510715720365,0.217700430059425
0.00190711204644837,0.00220873485770709,0.0157502735192505,0.0479985361558519,0.00586474626945118,0.0182359943585634,0.000352020633030182,0.218125741489402
0.00196516223962766,0.00212144625125484,0.015743182467639,0.0485158982775066,0.00584589382149288,0.0189443793860011,0.000360591040730932,0.217992170475068
0.00202068184484804,0.00205468847738206,0.0157487287142647,0.0490010995171666,0.00586048665766307,0.0196330393797582,0.000369151234146409,0.217293166995617
0.00207328363332382,0.00200821853925413,0.0157645401190268,0.0494460768107005,0.00590545284959436,0.0202944326964309,0.000377627151202597,0.216034251285703
0.00212266113546867,0.00198149701425265,0.0157879439424525,0.0498434682988191,0.00597744505287475,0.0209209396475717,0.000385942912748482,0.214233178697209
0.00216858525383745,0.00197370465797584,0.0158160211102924,0.0501867420767445,0.00607291616379713,0.0215050089852844,0.000394022464520684,0.211919798526484
0.00221089980519655,0.0019837625281848,0.015845668387443,0.050470302826334,0.00618819346488785,0.0220393084814712,0.000401791276724096,0.209135609138811
0.00224951611547378,0.00201035523947891,0.0158736668454068,0.0506895740435974,0.00631954967096712,0.0225168753433354,0.000409178053046609,0.205933027203871
0.00228440673450934,0.00205195691523934,0.0158967550150334,0.0508410558583822,0.00646326976081022,0.0229312626211372,0.000416116389653522,0.202374395511032
0.00231559833815634,0.00210685937264673,0.0159117053034947,0.0509223606546766,0.00661571286595732,0.0232766783180298,0.000422546318281271,0.198530751714579
0.00234316394729281,0.00217320211429292,0.0159154023016924,0.0509322300616149,0.00677336863425958,0.0235481141718255,0.000428415676038713,0.194480379011024
0.00236721467332531,0.00224900377346591,0.0159049212854287,0.0508705368751315,0.00693290738930898,0.0237414607290507,0.000433681264606815,0.190307166450844
0.00238789124048358,0.00233219469486764,0.0158776047372713,0.0507382740065872,0.00709122332472112,0.0238536047982653,0.000438309782453481,0.186098818818544
0.00240535550233253,0.00242065029800674,0.0158311346192154,0.0505375304533196,0.00724547012712328,0.0238825055720375,0.0004422785236526,0.18194496800937
0.00241978211025341,0.00251222483141062,0.0157635985478591,0.0502714528314374,0.00739308878287323,0.0238272468675781,0.0004455758311159,0.177935244982893
0.00243135048429354,0.00260478513665125,0.0156735486936552,0.0499441906830127,0.0075318277569876,0.0236880645563989,0.000448201282535615,0.174157371472069
0.00244023727822565,0.0026962440670455,0.0155600527809505,0.0495608244033221,0.00765975610951023,0.0234663495949198,0.000450165590240741,0.170695324587083
0.0024466095593237,0.00278459318636078,0.0154227367081474,0.0491272759285245,0.00777527034008664,0.0231646275007641,0.000451490212324365,0.16762761944882
0.00245061888869549,0.00286793429651249,0.0152618179491689,0.0486502038832117,0.00787709576931553,0.0227865147216678,0.000452206693271206,0.165025748188623
0.00245239641239318,0.00294450928048846,0.0150781283712186,0.048136886176272,0.00796428306570534,0.0223366521495651,0.00045235576816304,0.162952807423774
0.00245204903237455,0.00301272775581804,0.0148731249158755,0.0475950934266515,0.00803620021305512,0.0218206167110441,0.000451986267348315,0.161462339169366
0.00244965673443998,0.00307119209616212,0.0146488868915792,0.0470329556642431,0.00809251998388551,0.0212448132124158,0.000451153847374578,0.160597401600174
0.00244527116079725,0.00311871943644496,0.0144080992845434,0.0464588230300986,0.00813320293688101,0.0206163498194403,0.000449919561879909,0.160389876666555
0.00243891547938513,0.0031543602688977,0.0141540222760899,0.0458811201690097,0.00815847606339852,0.0199429011733607,0.000448348286635059,0.160860012407791
0.00243058551697002,0.00317741316163004,0.0138904477634737,0.0453081943497545,0.00816880740980593,0.0192325629415917,0.000446507025855085,0.162016190136875
0.00242025204883098,0.00318743509621429,0.0136216438435175,0.0447481587118547,0.00816487723556033,0.0184937009595247,0.000444463144309015,0.163854901575151
0.00240786411965301,0.00318424701635963,0.0133522879252144,0.0442087338059884,0.00814754646881858,0.0177347977942503,0.000442282582081555,0.166360919151049
0.00239335329198353,0.00316793438228,0.0130873888916503,0.0436970921567902,0.00811782332333451,0.0169642997413371,0.000440028108221487,0.169507643957529
0.00237663874065122,0.00313884274337532,0.0128321989943798,0.043219711397873,0.00807682886742683,0.0161904676345776,0.000437757657018328,0.173257619175238
0.00235763309554903,0.00309756846548834,0.0125921168609382,0.0427822412042948,0.00802576208348586,0.0154212350448419,0.000435522780494348,0.177563199944091
0.00233624886382392,0.00304494474412207,0.0123725837901089,0.0423893878145273,0.0079658647279804,0.0146640772340406,0.000433367252745671,0.182367370928014
0.00231240517337616,0.00298202304279368,0.0121789760408296,0.0420448183666049,0.00789838632825272,0.0139258936195752,0.000431325871555453,0.187604698619108
0.0022860345372526,0.00291005025094931,0.0120164958548395,0.0417510865878296,0.00782454993428735,0.0132129058112678,0.000429423510269277,0.193202399806307
0.0022570893603182,0.00283044210601303,0.0118900636159299,0.0415095815500631,0.00774551962375706,0.012530572794375,0.000427674469749823,0.199081505590385
0.00222554797145502,0.00274475363110044,0.0118042132986083,0.0413205016670483,0.00766237103971808,0.011883524517184,0.00042608216602776,0.205158102502291
0.00219142002665995,0.00265464740263324,0.0117629933876513,0.0411828563301889,0.00757606626998574,0.0112755148497107,0.000424639174452128,0.211344636287313
0.002154751145924,0.00256186041255415,0.011769875589347,0.041094497259364,0.00748743414618423,0.0107093944941479,0.000423327641424589,0.217551267342816
0.00211562660169908,0.00246817025555175,0.0118276737011022,0.0410521807793685,0.00739715672309891,0.0101871038988865,0.000422120064410091,0.223687268268311
0.00207417382997635,0.00237536137805807,0.0119384748397266,0.0410516610081614,0.00730576242655509,0.00970968563013801,0.000420980424570021,0.229662453256171
0.00203056356543031,0.0022851921045144,0.0121035848216017,0.0410878125818976,0.007213626078932,0.00927731515162424,0.000419865638163978,0.235388626458839
0.00198500950724168,0.00219936307460123,0.0123234889147499,0.0411547801456938,0.007120975656856,0.00888934861812204,0.000418727277498096,0.240781032043658
0.00193776654349304,0.00211948762444899,0.0125978286258578,0.0412461503114112,0.00702790522386022,0.00854438605510309,0.000417513496254158,0.245759781582646
0.00188912763127795,0.00204706455649918,0.0129253947825143,0.0413551399544469,0.00693439307009132,0.0082403480953807,0.000416171078949566,0.250251224661933
0.00183941941854738,0.00198345364983005,0.0133041369334996,0.0414747928924731,0.00684032375591876,0.00797456419154832,0.000414647530005033,0.254189220235686
0.00178899666975302,0.00192985418227489,0.013731188946238,0.041598176017099,0.0067455125980017,0.00774386987163075,0.000412893126052779,0.25751626464845
0.00173823560234658,0.00188728670434874,0.014202910488056,0.0417185663555652,0.00664973119914925,0.00754471024850602,0.000410862865702136,0.26018443880915
0.00168752634159657,0.00185657830910468,0.014714943686822,0.0418296222193758,0.00655273285706754,0.00737324682478161,0.000408518251893705,0.262156149682635
0.0016372647933759,0.00183835163706553,0.0152622837488476,0.0419255339774552,0.0064542769646176,0.00722546472944498,0.0004058288343755,0.26340465585153
0.00158784426509048,0.00183301780858565,0.0158393619931457,0.0420011521577433,0.00635415167085375,0.00709727781942387,0.00040277344184756,0.263914377900512
0.00153964712981066,0.00184077339379652,0.0164401397765864,0.0420520915437914,0.00625219400884144,0.00698462943897847,0.000399341053843338,0.263680996757732
0.00149303678546151,0.00186160144531617,0.0170582119675887,0.0420748093702893,0.00614830656380591,0.00688358686764935,0.000395531292911462,0.262711337479574
0.00144835014847347,0.00189527653739461,0.0176869187104245,0.042066654969246,0.00604246983377264,0.00679042747712818,0.000391354544000247,0.261023032206762
0.00140589092013352,0.00194137366395165,0.0183194639789475,0.0420258888908307,0.00593474977842895,0.00670171453576116,0.000386831718306446,0.258643961844873
0.00136592384610955,0.00199928075268207,0.0189490388041041,0.0419516716212185,0.0058253005291179,0.00661436081759756,0.000381993673763234,0.255611489495467
0.00132867014591336,0.0020682144625647,0.0195689463729394,0.0418440246600199,0.00571436267794848,0.00652567877526769,0.000376880301763286,0.251971514056579
0.001294304227264,0.0021472388400353,0.0201727258110458,0.0417037689919921,0.00560225783306812,0.00643341681720597,0.00037153930239891,0.24777738424667
0.00126295173547319,0.00223528632534494,0.0207542714800512,0.0415324472157007,0.00548938014232992,0.00633578189499289,0.000366024693600813,0.24308871778851
0.00123468893248141,0.00233118056119767,0.0213079449811773,0.0413322354234955,0.0053761853351013,0.00623144891556163,0.000360395122315619,0.237970166320188
0.00120954335818262,0.002433660475645,0.0218286775946986,0.0411058495244904,0.00526317774064209,0.00611955748690485,0.000354712059098837,0.232490156630604
0.00118749569365258,0.0025414051727662,0.0223120613353956,0.0408564489759247,0.00515089580318949,0.00599969656697582,0.000349037956444077,0.226719629444986
0.00116848271087284,0.00265305923093811,0.0227544268251558,0.0405875396925558,0.00503989674868546,0.0058718779280777,0.000343434439079333,0.220730791564669
0.00115240114644353,0.00276725803692497,0.0231529056666259,0.0403028772901182,0.00493074116358779,0.00573649983326099,0.000337960582125843,0.214595894933338
0.00113911228707394,0.00288265274391325,0.0235054745577049,0.0400063715670833,0.00482397826075854,0.00559430272410879,0.000332671326466055,0.208386055955212
0.00112844703118955,0.00299793435132264,0.0238109787614873,0.0397019931347582,0.00472013252006404,0.00544631888243931,0.000327616077829518,0.202170129519283
0.00112021120807757,0.00311185634078997,0.0240691337565875,0.0393936833689341,0.00461969223068788,0.00529381793434674,0.00032283753361585,0.196013654288735
0.00111419098512333,0.00322325531821305,0.024280505435972,0.039085269353042,0.00452310027373181,0.0051382498866728,0.000318370776930428,0.189977888114403
0.00111015825398601,0.00333106920260387,0.0244464704306241,0.0387803860329275,0.00443074730607299,0.00498118729249234,0.000314242668969561,0.184118953444129
0.00110787593188879,0.00343435264122409,0.0245691584521752,0.0384824080273073,0.00434296735258657,0.00482426811410407,0.000310471557740172,0.178487110395732
0.00110710312225477,0.0035322894768991,0.0246513780486264,0.0381943929872324,0.00426003566290823,0.00466914079835465,0.000307067304371315,0.173126168867082
0.00110760005231695,0.0036242021975145,0.0246965267962192,0.0379190370308877,0.00418216850742744,0.00451741293954064,0.000304031610895991,0.168073043559309
0.00110913268258944,0.00370955830868268,0.0247084873856925,0.0376586414453191,0.00410952440402912,0.0043706046831145,0.000301358616746379,0.163357451484964
0.00111147688969051,0.00378797348611477,0.0246915121160424,0.037415089357955,0.00404220618512728,0.00423010778948837,0.000299035718191812,0.159001750988256
0.00111442214868242,0.00385921129600495,0.0246500994868571,0.0371898313771003,0.00398026338701791,0.00409715108139245,0.000297044559155037,0.155020922486987
0.00111777466560399,0.00392317933579187,0.0245888673878956,0.036983879861334,0.00392369463802779,0.00397277282297119,0.000295362142215367,0.151422692012814
0.00112135992785489,0.00397992184320202,0.02451242745204,0.0367978121302914,0.00387244995731778,0.00385780039063329,0.000293962009642244,0.14820779796551
0.00112502465338957,0.00402960907431553,0.0244252644467508,0.0366317833486142,0.00382643305264071,0.00375283738015777,0.000292815439997298,0.14537039905601
0.00112863813519664,0.00407252396347763,0.0243316237262877,0.0364855499044377,0.00378550374210077,0.00365825807420261,0.000291892598783823,0.14289861761405
0.00113209299263204,0.00410904665999741,0.0242354093687513,0.0363585038157167,0.00374948053353081,0.00357420900485467,0.000291163583807163,0.140775207946049
0.00113530534122791,0.00413963746810255,0.0241400956621513,0.036249717946686,0.00371814331507341,0.00350061719473261,0.00029059932218534,0.138978334829076
0.00113821436750623,0.00416481861550303,0.0240486547716231,0.0361580005044035,0.0036912361412143,0.00343720453846685,0.000290172300075517,0.137482442827004
0.00114078127221961,0.00418515527623239,0.023963503428631,0.0360819556846552,0.0036684702106494,0.0033835076859043,0.000289857127911794,0.136259192786133
0.00114298756348816,0.00420123637264621,0.0238864711419709,0.0360200462597993,0.00364952725701868,0.00333890270212772,0.000289630954319489,0.135278436941306
0.00114483274030328,0.00421365580555824,0.0238187916575496,0.0359706538962356,0.00363406365188514,0.0033026336963727,0.000289473738829844,0.134509198095623
0.00114633147982723,0.00422299483719717,0.0237611182518806,0.0359321340062768,0.00362171551543852,0.00327384451285605,0.000289368386517954,0.133920613348245
0.00114751049945048,0.00422980632817501,0.0237135621988802,0.0359028635710861,0.00361210503493781,0.00325161244235428,0.000289300747200962,0.133482802389952
0.00114840528622717,0.00423460139564503,0.0236757526547476,0.035881281977688,0.00360484802386443,0.00323498276692013,0.000289259488230054,0.133167625891451
0.00114905686638333,0.00423783887485223,0.0236469152837977,0.035865925762153,0.00359956256684969,0.00322300286071995,0.000289235859373805,0.1329493097314
0.00114950874384799,0.00423991781803446,0.0236259661220519,0.0358554577775409,0.003595878432409,0.00321475457117706,0.000289223377566371,0.132804922434047
0.00114980410280617,0.00424117317047383,0.0236116163721255,0.0358486902705352,0.00359344680909302,0.00320938367222124,0.000289217465485094,0.132714701674212
0.00114998335959855,0.00424187468780385,0.0236024829724208,0.0358446009322265,0.00359194982693893,0.00320612525971723,0.000289215077965176,0.132662227833694
0.0011500821566668,0.00424222906030078,0.0235971988089807,0.0358423414954188,0.00359110925218672,0.00320432398112349,0.000289214342652341,0.132634441520805
0.00115012990201193,0.00424238505937993,0.023594515278975,0.0358412392442125,0.00359069366521911,0.00320344792370027,0.000289214230852333,0.132621505076099
0.00115014895750208,0.00424244131472049,0.0235933886114461,0.0358407921480552,0.00359052332170877,0.00320309489658005,0.000289214268878497,0.132616516730605
0.00115015455711423,0.00424245609932237,0.023593040065652,0.0358406577809875,0.00359047173907071,0.00320298982816126,0.000289214299997441,0.132615096039369
