APL,FCR,FDS,FDP,ED,EI,ECU,ECR
1.78483258926116e-05,7.10983195695985e-05,0.00599252112315775,0.00659169730458491,0.00202640721394103,0.0530068727212455,0.0111783201057225,6.22024309756206e-05
0.000138808034973314,0.000237695129193407,0.0061777372738096,0.00701645435935838,0.00208700763647336,0.0542994503361616,0.0111523277190965,6.20581099820782e-05
0.000257774020960401,0.000394392596811256,0.0063560581998727,0.00742655074955383,0.00213857899638079,0.0555259411921295,0.0110118275783493,6.19509035815705e-05
0.000373993231771925,0.000539994004400295,0.00652568853760916,0.00781896081109628,0.00218052184047211,0.0566847935532036,0.0107470901561731,6.18851228574176e-05
0.000486755920150689,0.000673467379117676,0.00668489447022047,0.00819091504564323,0.00221237352308139,0.0577764336253107,0.0103494649110583,6.18648407322989e-05
0.000595405342966372,0.000793963098605039,0.00683203068338343,0.00853994678397309,0.0022338190244629,0.0588032701554773,0.00981164158977961,6.18938162506486e-05
0.000699345624813836,0.000900826509191221,0.00696556574907704,0.00886393070761105,0.00224469810462841,0.059769621199575,0.00912791709871433,6.1975411212326e-05
0.000798047677935271,0.000993605401411452,0.00708410550485703,0.00916111249178788,0.00224500864005447,0.0606815625787632,0.00829446406817593,6.21124971075986e-05
0.000891053212995031,0.00107205250514096,0.00718641419716445,0.0094301296315267,0.00223490629565886,0.0615467040511336,0.00730959702271428,6.23073540809216e-05
0.000977976962704248,0.00113612335115212,0.00727143325266505,0.00967002409425761,0.00221470090192201,0.0623739044078185,0.00617403192887301,6.25615682061107e-05
0.00105850726412743,0.00118596990297224,0.00733829755207933,0.00988024766469187,0.002184849987353,0.0631729397643248,0.00489113471589952,6.28759364362534e-05
0.00113240513681257,0.00122193037877266,0.0073863490677884,0.0100606606945578,0.00214594988249222,0.0639541399632933,0.00346715409251079,6.32503888360636e-05
0.00119950199954529,0.00124451572752768,0.00741514772302925,0.0102115246602065,0.00209872476038941,0.0647280064798669,0.00191143365071505,6.36839361291737e-05
0.00125969619946099,0.00125439328743456,0.00742447929453049,0.010333488788682,0.00204401396737909,0.0655048229336483,0.000236597982736527,6.41746495194857e-05
0.00131294856897025,0.00125236820723475,0.00741436002500027,0.0104275711313616,0.00198275800165408,0.0662942681250738,-0.00154129259327186,6.47196794215907e-05
0.00135927726267079,0.00123936323610391,0.00738503738881632,0.0104951347449358,0.00191598347900095,0.0671050419173949,-0.0034026241231576,6.53153188919995e-05
0.00139875214649266,0.00121639748244868,0.0073369864170302,0.0105378599252503,0.00184478737374322,0.0679445156221546,-0.00532415328704155,6.59571153761541e-05
0.00143148900732036,0.00118456471103896,0.00727090126309484,0.0105577135600029,0.00177032075368985,0.068818419770951,-0.00727897908017993,6.66400310507172e-05
0.00145764381900288,0.00114501169864627,0.0071876821654406,0.0105569164989078,0.00169377216962488,0.0697305822325876,-0.00923656691022054,6.73586483984723e-05
0.00147740724274625,0.00109891710792458,0.0070884184209736,0.0105379094802963,0.00161635083580867,0.0706827279577529,-0.0111628297825167,6.81074146569086e-05
0.00149099947670963,0.0010474712739693,0.00697436821504585,0.010503317920287,0.00153926975019888,0.071674348447195,-0.0130202707940746,6.88809170349154e-05
0.00149866552526792,0.000991857232426287,0.00684693607978439,0.0104559159082357,0.00146372892919597,0.0727026452251729,-0.0147681906019848,6.96741800739189e-05
0.00150067093797263,0.000933233254062185,0.00670764856337597,0.0103985899434263,0.00139089893555493,0.0737625478276405,-0.0163629628904069,7.04829766673996e-05
0.00149729806473507,0.00087271708793154,0.00655812864053513,0.0103343031054307,0.00132190484298961,0.0748468037596154,-0.0177583801003413,7.13041441590622e-05
0.00148884287618073,0.000811372055070673,0.00640006948346074,0.0102660603101375,0.00125781074736846,0.07594613594772,-0.0189060707436504,7.21358957118328e-05
0.00147561239308307,0.000750195082583633,0.0062352083240192,0.0101968750010347,0.00119960494898856,0.0770494618896167,-0.0197559884804702,7.29781145824056e-05
0.00145792274188704,0.000690106727133444,0.00606530118677017,0.0101297372239136,0.00114818598250035,0.0781441668892803,-0.0202569718300745,7.38326164497721e-05
0.00143609779919391,0.000631943204371887,0.00589209923312136,0.0100675828078416,0.00110434972110323,0.0792164209488043,-0.0203573719650734,7.47033642425095e-05
0.00141046833045418,0.000576450410637946,0.00571732734053117,0.010013263407677,0.00106877779593194,0.0802515264273983,-0.0200057445722069,7.55966214492179e-05
0.00138137150139694,0.00052427988984502,0.00554266536090335,0.00996951737142223,0.00104202754401141,0.0812342831781784,-0.0191516003158175,7.65210333597207e-05
0.00134915065074642,0.000475986662176422,0.00536973225860224,0.00993894164806185,0.00102452365939032,0.082149359590097,-0.0177462070549592,7.74876302073494e-05
0.00131415524353228,0.000432028797334747,0.00520007304984987,0.00992396510138392,0.0010165516948509,0.0829816608099579,-0.0157434356031758,7.85097501491054e-05
0.00127674095254778,0.000392768584850922,0.00503514825076739,0.00992682351301116,0.00101825353259077,0.0837166880823194,-0.013100639384317,7.96028814990688e-05
0.00123726981795999,0.000358475128545128,0.00487632546116985,0.00994953623833495,0.00102962490224475,0.0843408842669228,-0.00977955679684107,8.07844230138813e-05
0.00119611040227321,0.0003293281783905,0.00472487275016691,0.0099938841679259,0.00105051499127231,0.084841959290754,-0.00574722348835748,8.20733624173169e-05
0.00115363781811072,0.000305423013239339,0.004581953609649,0.0100613885933829,0.00108062817583616,0.0852091865729461,-0.000976880125335838,8.34898789031399e-05
0.00111023350110412,0.000286776196471139,0.00444862333056925,0.0101532907869753,0.00111952788500889,0.0854336601059274,0.00455114029432144,8.50548827266129e-05
0.00106628463484959,0.000273332033664553,0.00432582666200518,0.0102705324603912,0.00116664258022137,0.0855085032013174,0.0108485628883475,8.67895103344513e-05
0.0010221831886884,0.000264969559721408,0.00421439650078549,0.0104137376194894,0.00122127378617953,0.0854290232438716,0.0179183774354335,8.8714594447623e-05
0.000978324575910284,0.000261509879836695,0.00411505322134646,0.0105831965237683,0.00128260606849157,0.0851928108047618,0.02575411994154,9.08501268209495e-05
0.000935105957327673,0.000262723699057337,0.00402840424166046,0.0107788523678319,0.00134971882724815,0.0847997846115788,0.0343392481798142,9.32147303291875e-05
0.000892924196402172,0.000268338899329573,0.00395494355635391,0.0110002909685141,0.00142159976055382,0.0842521846836509,0.0436466297225815,9.58251562234754e-05
0.000852173444475159,0.000278048049040606,0.00389505116815396,0.011246733467555,0.00149715984194069,0.0835545141652702,0.0536381603520095,9.86958199692356e-05
0.00081324233360461,0.000291515745002562,0.00384899249728257,0.0115170320791453,0.00157524964733526,0.0827134286993434,0.0642645300432838,0.000101838385412888
0.000776510782632624,0.000308385689163588,0.00381691785704779,0.0118096691806801,0.00165467685729137,0.081737573518662,0.0754651529327777,0.000105261403560174
0.000742346462792605,0.000328287408364869,0.003798861998228,0.0121227603875311,0.00173422474132259,0.0806373725930998,0.087168276718451,0.000108970008533358
0.000711101005392866,0.000350842545266083,0.00379474371084648,0.0124540624581289,0.00181267139150987,0.0794247789655833,0.0992912856490369,0.000112965669518481
0.000683106053123897,0.000375670673916612,0.00380436558292417,0.0128009867685969,0.00188880940959958,0.0781129982894905,0.111741209467199,0.000117245995926393
0.000658669251418336,0.000402394610764675,0.00382741415901915,0.013160618706476,0.00196146569679986,0.0767161971664657,0.124415448177602,0.000121804594324925
0.000638070252538426,0.000430645193432856,0.00386346079792502,0.0135297429900682,0.00202952098671529,0.0752492059627416,0.137202719093639,0.000126630978452998
0.000621556784754817,0.000460065493838634,0.00391196345857079,0.0139048748496317,0.00209192880431746,0.0737272253603291,0.149984228046023,0.000131710535424788
0.000609340837702233,0.000490314436186676,0.00397226955339274,0.0142822971226218,0.00214773360421357,0.0721655469558128,0.162635060723058,0.000137024549990044
0.000601595029484016,0.000521069808380012,0.00404361999511119,0.0146581034225984,0.00219608790044742,0.0705792988291953,0.175025783109874,0.000142550284606917
0.000598449241431056,0.000552030681448018,0.00412515457159572,0.0150282474593429,0.00223626820661633,0.068983225727417,0.187024232859149,0.000148261109478649
0.000599987622914603,0.000582919277008534,0.00421591871981648,0.0153885982024577,0.00226768955200534,0.0673915104928826,0.198497477078843,0.000154126676126269
0.000606246073139951,0.000613482338198862,0.00431487164726658,0.0157349999797833,0.00228991828895388,0.0658176399397588,0.209313906964387,0.000160113130183154
0.000617210294784413,0.000643492057247661,0.00442089568385376,0.016063336111781,0.00230268292127576,0.0642743150137087,0.219345436157925,0.000166183362562456
0.000632814492071529,0.000672746595606228,0.00453280675918154,0.0163695945163309,0.00230588275931714,0.0627734020276459,0.228469767536402,0.000172297301425349
0.000652940769770759,0.000701070217425125,0.00464936589185515,0.0166499338376164,0.00229959430537145,0.0613259200383598,0.236572691563628,0.000178412248785046
0.000677419285916334,0.000728313055641926,0.00476929147693369,0.0169007489035486,0.00228407534772294,0.0599420590152856,0.243550376870276,0.000184483263486491
0.000706029213201075,0.000754350539663826,0.00489127205266075,0.0171187344834922,0.00225976675204833,0.0586312230853781,0.249311608282051,0.000190463586446756
0.000738500562969696,0.000779082528549681,0.0050139792511997,0.0173009461698023,0.00222729188249451,0.0574020916805161,0.253779918629069,0.000196305097743183
0.000774516914643016,0.00080243220820295,0.00513608076825756,0.0174448566967152,0.00218745353244347,0.056262689704978,0.256895553014069,0.00020195879254741
0.000813719069127591,0.000824344820125667,0.00525625329493416,0.0175484055667266,0.00214122826546136,0.0552204578169617,0.258617203702585,0.000207375264866787
0.000855709609280549,0.000844786287319122,0.0053731953252477,0.0176100399550322,0.0020897581498819,0.0542823158217149,0.25892346158253,0.00021250519319868
0.000900058311635198,0.000863741785002821,0.0054856396272071,0.0176287455031299,0.00203433996078775,0.0534547149641138,0.257813943355085,0.000217299828228605
0.000946308318783651,0.000881214271272143,0.00559236513334721,0.0176040664715779,0.00197641196024893,0.0527436774811891,0.25531006680579,0.00022171148668954
0.000993982954109327,0.000897222961412461,0.00569220812807863,0.0175361153748633,0.00191753833379866,0.052154823276035,0.251455453094462,0.000225694054496193
0.00104259304172326,0.000911801716602558,0.00578407277639178,0.0174255723087355,0.00185939133052559,0.0516933834335456,0.246315932497259,0.000229203495850395
0.00109164458499224,0.000924997326383082,0.00586694110772014,0.0172736737612249,0.00180373119079833,0.0513641987961735,0.239979127531482,0.00023219835846652
0.00114064665370456,0.000936867687889681,0.00593988246605232,0.0170821904342295,0.00175238401912811,0.0511717007255912,0.232553596179725,0.000234640263948254
0.00118911932388635,0.00094747991151469,0.00600206227877445,0.0168533939566178,0.00170721780079094,0.0511198719899136,0.224167537562942,0.000236494376515431
0.00123660149276339,0.000956908397597354,0.00605274996834499,0.0165900131829412,0.00167011674183661,0.0512121882721423,0.214967085026006,0.000237729849653629
0.00128265835305711,0.000965232919189233,0.00609132594224619,0.0162951816374526,0.00164295409854333,0.051451544068137,0.205114228314079,0.000238320255531149
0.00132688828445949,0.000972536716918568,0.006117287730844,0.0159723781733761,0.00162756371880246,0.0518401695058668,0.194784411568873,0.000238244003529794
0.00136892893428375,0.000978904593992443,0.00613025537037905,0.0156253628242097,0.00162571061934224,0.0523795458161602,0.184163850604347,0.000237484750311362
0.00140846231159181,0.000984421011674116,0.00612997598844033,0.0152581093249325,0.00163906100585976,0.0530703264087163,0.173446612499378,0.000236031794838682
0.00144521878521719,0.000989168217959301,0.00611632735932702,0.014874735455495,0.0016691521611555,0.0539122686885669,0.162831507188623,0.000233880442118912
0.00147897992109148,0.000993224471531021,0.00608932014584616,0.0144794324395058,0.00171736259647718,0.0549041804092719,0.152518850059882,0.000231032314544647
0.00150958009152095,0.000996662427139828,0.00604909865756804,0.0140763949206453,0.00178488285879336,0.0560438837694027,0.142707161513337,0.000227495591063744
0.00153690676370865,0.000999547723301693,0.00599594012826287,0.0136697532825613,0.00187268744369384,0.0573282000597014,0.133589871276553,0.000223285160637651
0.00156089939290161,0.00100193778611384,0.00593025260867643,0.0132635101030491,0.00198150835149359,0.0587529570676985,0.125352091794683,0.000218422684717988
0.00158154692591835,0.00100388085885759,0.00585257148929326,0.0128614822682724,0.00211181089934653,0.0603130206167073,0.118167518216182,0.000212936569994697
0.00159888402770284,0.00100541527994416,0.00576355450040191,0.012467249736047,0.0022637724263179,0.0620023507290188,0.112195505430674,0.000206861853661133
0.00161298622516489,0.00100656904252629,0.0056639750007273,0.012084111286388,0.00243726448673004,0.063814082049003,0.107578366748604,0.000200239998084683
0.00162396417982227,0.00100735966011981,0.00555471350939346,0.0117150470980355,0.00263183905632125,0.0657406271185096,0.104438933835872,0.000193118586073949
0.00163195726794199,0.00100779433073029,0.00543674763606131,0.0113626877864164,0.00284671922567685,0.067773799350816,0.102878413002975,0.00018555090874695
0.00163712663171942,0.00100787036123997,0.00531114066527822,0.0110292896138122,0.00308079482247997,0.0699049501090256,0.102974568709993,0.000177595445338799
0.00163964789864748,0.00100757580782713,0.00517902897224713,0.0107167158183742,0.00333262335157157,0.0721251125943125,0.104780261023932,0.000169315244246611
0.00163970382319168,0.00100689030253856,0.00504160831020797,0.0104264242065854,0.00360043654185398,0.0744251455494365,0.10832235949038,0.000160777222824905
0.00163747714774673,0.00100578605044784,0.00490011901244661,0.0101594611019492,0.00388215266182886,0.0767958716882505,0.113601051096932,0.000152051406480453
0.00163314398046974,0.00100422897491726,0.00475583029631321,0.00991646144600326,0.00417539465801475,0.0792282076942532,0.120589554517745,0.000143210124472268
0.00162686793945667,0.00100217996095131,0.00461002400444531,0.00969765466143466,0.00447751408425478,0.0817132827689711,0.12923424712256,0.000134327174133694
0.00161879524400788,0.000999596131945026,0.00446397813633659,0.00950287603368923,0.00478562068477844,0.0842425410683591,0.139455206051281,0.000125476962399144
0.00160905087977838,0.000996432113137726,0.00431895040716858,0.0093315836870392,0.00509661733451492,0.0868078227910102,0.151147160066062,0.000116733634544603
0.00159773592834387,0.000992641269332639,0.00417616198982374,0.00918288144212945,0.00540723985804271,0.0894014208484754,0.164180844429225,0.000108170202937654
0.00158492612039895,0.000988176925378901,0.00403678165639718,0.00905554775246335,0.00571410112294898,0.0920161135533254,0.178404746033395,9.9857691309141e-05
0.00157067163721128,0.000982993566909086,0.00390191066898679,0.00894807061160664,0.00601373876035808,0.0946451760817171,0.193647219673518,9.18643112909171e-05
0.00155499814609776,0.000977047995034809,0.00377256885697552,0.00885868808455378,0.00630266587352566,0.0972823728359931,0.209718948454034,8.42546870924306e-05
0.00153790901546174,0.000970300409066824,0.00364968227990433,0.00878543400062455,0.00657742410127819,0.0999219305494708,0.226415713184956,7.70891411399359e-05
0.00151938861469401,0.000962715417830916,0.00353407275128058,0.008726188178159,0.00683463834921618,0.102558491495271,0.243521429109634,7.042304916405e-05
0.00149940655901474,0.000954263007999359,0.00342644941923882,0.00867873023847263,0.00707107233911331,0.10518704840553,0.260811404258104,6.43062696754139e-05
0.00147792270002124,0.000944919502062606,0.00332740259933896,0.00864079575926473,0.00728368386131412,0.107802865938899,0.278055772068838,5.87826512984158e-05
0.00145489259787387,0.000934668514184577,0.00323740006776227,0.0086101333640237,0.00746967836902482,0.110401395350281,0.295023050879434,5.38896215924848e-05
0.00143027317610627,0.000923501886545672,0.00315678598863277,0.00858456124971221,0.00762655946668127,0.112978187740931,0.31148378277357,4.96578615870052e-05
0.00140402827655137,0.000911420585824085,0.00308578255012875,0.00856202145344473,0.00775217495470654,0.115528808360514,0.327214201528427,4.61110700742172e-05
0.00137613388952078,0.000898435552436571,0.00302449424536039,0.00854062991613002,0.00784475735541969,0.118048753646964,0.341999871445962,4.32658201571607e-05
0.0013465829027665,0.000884568505355193,0.00297291459730152,0.00851872042059068,0.00790295815135933,0.120533374777656,0.355639227203186,4.11315083600829e-05
0.00131538925360028,0.000869852696671567,0.00293093501810628,0.00849488087169963,0.00792587516075304,0.122977813986781,0.36794693732862,3.97103949750332e-05
0.00128259135963155,0.000854333581369686,0.00289835540192077,0.0084679809648907,0.00791307242667087,0.12537695983321,0.378757016291278,3.89977332980938e-05
0.00124825467939354,0.000838069342941686,0.00287489594359082,0.00843719075377374,0.00786459182174411,0.127725424393599,0.387925622032867,3.89819844042699e-05
0.00121247327543973,0.000821131215915755,0.00286020956036377,0.00840198974167349,0.00778095560891912,0.13001754236607,0.395333492740875,3.96451126977513e-05
0.00117537032668115,0.00080360356704651,0.00285389424395872,0.00836216603820875,0.00766315957522748,0.132247391899466,0.400887991937601,4.09629556199776e-05
0.00113709762935778,0.000785583718640869,0.00285550473205377,0.00831780530543879,0.00751265691377724,0.134408838354322,0.404524736900716,4.2905659116601e-05
0.00109783419703237,0.000767181500289931,0.00286456303921521,0.0082692698037865,0.00733133352098376,0.13649560245538,0.406208778735661,4.54381694017615e-05
0.00105778409144348,0.00074851849675243,0.0028805675657879,0.00821716859965291,0.00712147558333646,0.138501351480491,0.405935293187558,4.85207714275435e-05
0.00101717359237161,0.000729726948126315,0.00290300062715969,0.00816232060499101,0.00688573022710156,0.140419807605598,0.40372974458527,5.21096650694572e-05
0.000976247789861235,0.000710948276308216,0.00293133425788518,0.00810571235866942,0.00662705988882043,0.142244865272991,0.399647503638813,5.61575707880676e-05
0.000935266686695059,0.000692331250424937,0.00296503411507884,0.00804845232536821,0.00634869118578711,0.143970710794395,0.39377292626652,6.06143565215119e-05
0.000894500923806295,0.000674029841048267,0.00300356138086696,0.00799172326456375,0.00605405935671937,0.145591940427828,0.386217925786747,6.54276763862242e-05
0.000854227267290532,0.000656200827691034,0.00304637276610041,0.00793673413911774,0.00574674961558763,0.147103674876596,0.377120085589118,7.05436107593504e-05
0.000814724008995815,0.000639001212921234,0.0030929189530562,0.0078846730341502,0.00543043686015656,0.14850166616998,0.366640358523624,7.59072981354869e-05
0.000776266425954674,0.000622585484815378,0.00314264197285154,0.00783666251805181,0.00510882505600625,0.149782388594399,0.354960388930412,8.14635516070095e-05
0.000739122416366219,0.00060710277909031,0.00319497202937444,0.0077937187436559,0.00478558741878781,0.150943103769985,0.342279489309671,8.71574554019745e-05
0.000703548392692722,0.00059269401638641,0.00324932420640111,0.00775671537646333,0.00446430841863476,0.151981893133709,0.32881131239355,9.29349377744127e-05
0.000669785484828884,0.000579489111537293,0.00330509544830655,0.00772635320285214,0.00414842862344703,0.152897656809148,0.314780275554809,9.87433150341964e-05
0.000638056094616209,0.000567604356339149,0.00336166221225375,0.00770313606185588,0.00384119338114662,0.153690082551068,0.300417810365948,0.000104531799996499
0.000608560840249083,0.000557140062330164,0.00341837919754499,0.00768735356787996,0.00354560624034473,0.154359588960736,0.285958519375434,0.00011025196921857
0.00058147592481095,0.000548178529040212,0.00347457952594759,0.00767907090935564,0.00326438782959886,0.154907243362066,0.271636321215382,0.000115858186551121
0.000556950948364776,0.000540782389061022,0.00352957667188521,0.0076781257530294,0.0029999407436443,0.155334651592918,0.257680655147675,0.000121307983300351
0.000535107158952373,0.000534993369096582,0.00358266834153146,0.00768413195921373,0.00275432086961541,0.155643818615934,0.244312804542494,0.000126562395154544
0.000516036119629754,0.000530831487147619,0.00363314238864684,0.00769648957366924,0.00252921549719146,0.155836984175069,0.231742392089615,0.000131586253193521
0.000499798765611751,0.000528294684917607,0.00368028472451808,0.00771440051955518,0.00232592845424444,0.155916443164612,0.22016409739145,0.000136348424703436
0.000486424831666501,0.000527358880655588,0.00372338902074967,0.00773688949755311,0.00214537237812278,0.155884362266402,0.20975464701778,0.000140822001322364
0.000475912632834343,0.000527978416473784,0.00376176786243856,0.00776282963927463,0.00198806808355567,0.155742601346642,0.200670125648552,0.000144984435527161
0.000468229172814268,0.000530086857369893,0.0037947649523012,0.00779097231226472,0.00185415084505985,0.155492543955311,0.193043653082205,0.000148817628759781
0.00046331054324297,0.000533598083813106,0.00382176799709116,0.00781998025073453,0.00174338328234811,0.155134940930789,0.186983465003094,0.000152307973277808
0.000461062582325092,0.000538407620172914,0.00384222197028636,0.00784846311417579,0.00165517441635687,0.154669774234655,0.182571425777248,0.000155446345140027
0.000461361783743009,0.000544394157411079,0.00385564245862036,0.00787501464060367,0.00158860434988835,0.154096151281446,0.179861990981302,0.000158228041361413
0.000464056471536044,0.000551421248250286,0.00386162871772807,0.00789825056150152,0.00154245392535493,0.153412239798506,0.178881628184786,0.000160652653728931
0.000468968267229002,0.000559339161756533,0.00385987596251354,0.00791684626837034,0.0015152386303129,0.152615248864054,0.179628697289943,0.000162723875092411
0.000475893868632474,0.000567986875578894,0.00385018642585674,0.00792957305471692,0.00150524596602362,0.151701457032282,0.182073785843505,0.00016444923900482
0.000484607152113165,0.000577194172905026,0.00383247883654096,0.0079353318472396,0.00151057546868368,0.150666287055941,0.186160489337008,0.000165839797108778
0.000494861612799177,0.000586783815474255,0.00380679610240421,0.00793318364685247,0.00152918057635525,0.149504427944806,0.191806620734199,0.000166909737667873
0.000506393161770112,0.000596573780775187,0.00377331103368655,0.00792237620722602,0.0015589115600239,0.148210006383195,0.198905826403933,0.000167675944749382
0.000518923293867496,0.000606379567761573,0.00373232987221407,0.00790236656578915,0.00159755876984628,0.1467768085881,0.207329576817732,0.000168157497340559
0.000532162622375185,0.000616016580721789,0.00368429332620081,0.00787283888570974,0.00164289546496815,0.145198549379491,0.216929491132961,0.000168375113686424
0.000545814757016885,0.000625302591143679,0.00362977487672543,0.00783371695963466,0.00169271947561054,0.143469178992606,0.227539947761783,0.000168350554959168
0.000559580483468385,0.000634060254134999,0.0035694762939473,0.00778517089750112,0.00174489290430797,0.141583213610871,0.238980929500067,0.0001681060087274
0.000573162181263295,0.000642119628521678,0.00350422046842213,0.0077276179022488,0.00179737907280792,0.139536074584364,0.251061051434991,0.000167663472803653
0.000586268396700779,0.000649320631941803,0.00343494171937582,0.00766171745117214,0.0018482760027793,0.137324423274678,0.263580721219451,0.000167044155958474
0.000598618478535579,0.000655515361166781,0.00336267367872609,0.00758836148316031,0.0018958458717414,0.134946481927292,0.276335381836488,0.000166267910288089
0.000609947186555984,0.000660570221737313,0.00328853480715199,0.00750866023171844,0.0019385400720836,0.132402333820198,0.289118783447737,0.000165352712574752
0.000620009185951071,0.00066436783082227,0.00321371167987757,0.00742392413657277,0.00197501966738107,0.129694195862592,0.3017262225803,0.000164314215647091
0.000628583331743458,0.000666808669110211,0.00313944034025896,0.00733564199495442,0.00200417113159974,0.126826653327895,0.31395768010424,0.00016316539225193
0.000635476630403839,0.000667812450311377,0.00306698616154345,0.0072454553938489,0.00202511725804221,0.12380684340567,0.325620791639905,0.000161916291692514
0.000640527760930366,0.000667319158034191,0.00299762269901557,0.00715512954006177,0.00203722311888282,0.120644575808659,0.336533595878329,0.000160573923606694
0.000643610055141804,0.000665289693678457,0.00293260995078889,0.00706652081993387,0.0020400970406824,0.117352384305445,0.346527023195751,0.000159142274915772
0.000644633866804541,0.000661706095442606,0.00287317238725146,0.00698154169353743,0.00203358673474919,0.113945509836286,0.355447101388641,0.000157622456569724
0.000643548283278074,0.000656571319918364,0.00282047713807586,0.00690212375812464,0.00201777092184509,0.11044182062016,0.363156859563703,0.000156012967712897
0.000640342136135593,0.00064990861111649,0.00277561279575384,0.00683017989080439,0.00199294695032516,0.106861675143888,0.369537904910728,0.000154310057745294
0.000635044256449359,0.000641760502780268,0.00273956931857944,0.00676756624451583,0.00195961497676859,0.103227731098838,0.374491643481873,0.000152508162726469
0.000627722926537096,0.000632187498087555,0.0027132194546934,0.006716044665097,0.00191845925239698,0.0995647017762394,0.377940125740213,0.0001506003923239
0.000618484513219215,0.000621266456811168,0.00269730202418465,0.0066772460485762,0.001870326994188,0.0958990635626096,0.379826517196964,0.000148579046476913
0.000607471310453324,0.000609088722004664,0.00269240735502532,0.00665263528986196,0.0018162052843826,0.0922587222212561,0.380115214573436,0.000146436145076314
0.000594858647010648,0.000595758044169181,0.0026989651393644,0.0066434786575923,0.00175719644514809,0.0886726485861282,0.378791639251136,0.000144163956174303
0.00058085131543943,0.000581388394763012,0.00271723490595787,0.00665081452433134,0.00169449235677872,0.0851704939883161,0.375861737041658,0.000141755506272315
0.000565679371782447,0.000566101782803963,0.00274729921892459,0.00667542829536111,0.00162934821174705,0.0817821931547304,0.371351202603007,0.000139205052591757
0.000549593369638083,0.000550026186314133,0.00278905968477446,0.00671783213967661,0.00156305621221988,0.0785375608447759,0.365304442584518,0.000136508497758192
0.00053285912523725,0.000533293690190203,0.00284223587722342,0.00677824990168905,0.00149691971641873,0.0754658888896071,0.357783298652324,0.000133663733457761
0.000515752142441113,0.000516038900300654,0.00290636731256741,0.00685660746984885,0.00143222831171931,0.0725955505674636,0.348865564001008,0.000130670908258435
0.000498551840092295,0.000498397683495701,0.00298081857126149,0.00695252884106536,0.00137023423607042,0.0699536176968144,0.33864333617056,0.000127532621664133
0.000481535715851773,0.000480506258917583,0.00306478755633331,0.00706533802276325,0.00131213049460631,0.0675654931578646,0.327221248000791,0.000124254048239778
0.000464973569145615,0.000462500639395559,0.00315731676025211,0.0071940666952955,0.0012590309494341,0.0654545600628743,0.314714608422442,0.000120842993077826
0.000449121906894575,0.000444516396792066,0.00325730732003054,0.0073374673409567,0.0012119526083701,0.0636418491267449,0.301247476972843,0.000117309878567037
0.000434218663843581,0.0004266887010211,0.00336353557229007,0.00749403146765801,0.00117180029576853,0.0621457269846918,0.28695069735735,0.000113667665297359
0.000420478372724869,0.000409152563616852,0.00347467177159071,0.00766201253981376,0.00113935384671702,0.0609816090593413,0.271959921822425,0.000109931714637637
0.000408087911195701,0.000392043210705787,0.00358930061423046,0.00783945311076943,0.00111525792055144,0.0601617000696949,0.256413662077778,0.00010611960339601
0.000397202933583283,0.000375496517327392,0.00370594322128747,0.0080242154411174,0.00110001448086773,0.0596947634629611,0.240451398757719,0.000102250899881275
0.000387945073213665,0.000359649449878132,0.00382308026700347,0.00821401481353395,0.00109397793976614,0.059585919940469,0.224211771920315,9.83469075669217e-05
0.000380399979337047,0.000344640478659157,0.00393917595769296,0.00840645487560332,0.00109735291794258,0.059836476389475,0.207830868433144,9.44303814168143e-05
0.000374616230125437,0.000330609930769809,0.00405270252494854,0.0085990644519679,0.00111019453344234,0.0604437892863244,0.191440621831178,9.05252230831764e-05
0.000370605140112689,0.000317700250228019,0.00416216477575762,0.0087893351719153,0.00113241110286632,0.0614011693462576,0.17516734292832,8.66561620488597e-05
0.000368341457712322,0.000306056121132759,0.0042661241150707,0.00897475909354068,0.00116376911839182,0.0626978352910119,0.159130400721478,8.28484282976268e-05
0.00036776492653506,0.000295824403034622,0.00436322142370534,0.00915286557417505,0.00120390034572108,0.0643189235050306,0.14344107016133,7.91274194302314e-05
0.00036878266364791,0.000287153830730676,0.00445219825202333,0.00932125693124776,0.00125231086064828,0.0662455583481562,0.128201556404954,7.55183644540937e-05
0.000371272287656335,0.000280194439829744,0.00453191593719528,0.00947764270706858,0.00130839179901065,0.0684549867507307,0.113504198118156,7.20459881590727e-05
0.000375085710050156,0.000275096690646402,0.00460137241371796,0.00961987235777746,0.00137143155528223,0.0709207804988411,0.0994308484762455,6.87341820720647e-05
0.000380053487535709,0.000272010275214785,0.00465971660532987,0.00974596595981798,0.00144062915723641,0.0736131093965949,0.0860524312166852,6.56056884918075e-05
0.000385989620974578,0.000271082606501052,0.00470626030667891,0.00985414240705193,0.00151510856969616,0.0764990873581196,0.0734286687343662,6.26818023518325e-05
0.000392696673956259,0.0002724570055213,0.00474048735902863,0.0099428447395621,0.00159393371600676,0.0795431909772451,0.061607978521572,5.99820930843904e-05
0.000399971068828513,0.000276270617743674,0.00476205978180203,0.0100107625764259,0.0016761240170733,0.0827077468949161,0.050627532606636,5.75241472734948e-05
0.000407608407343888,0.00028265209816614,0.00477082050215439,0.0100568519156764,0.0017606702185376,0.0859534816372591,0.0405134719371226,5.53233329900711e-05
0.000415408665553457,0.00029171910319811,0.00476679248309428,0.01008035264624,0.0018465502465037,0.0892401259128517,0.0312812642734712,5.33925876993244e-05
0.000423181128205064,0.000303575629388637,0.00475017432238219,0.0100808039075596,0.0019327448468534,0.0925270641286788,0.0229361910238081,5.17422329852403e-05
0.000430748949837105,0.000318309253608521,0.00472133265754662,0.0100580570396284,0.0020182528081441,0.0957740182724118,0.0154739463299927,5.03798205493833e-05
0.00043795324721545,0.000335988349624238,0.00468079183587939,0.0100122855585798,0.0021021055926049,0.0989417524909234,0.00888133063426711,4.93100143952222e-05
0.000444656630938939,0.0003566593697674,0.0046292212487978,0.00994399151231121,0.00218338117161015,0.101992781185342,0.00313702066074143,4.85345132516942e-05
0.000450746078142812,0.000380344280145341,0.00456742063762198,0.00985400768645022,0.00226121682694419,0.104892061602453,-0.0017876019765877,4.80520154631817e-05
0.000456135055558661,0.000407038225385211,0.00449630371504943,0.00974349536588566,0.00233482070571262,0.107607653179769,-0.00592758063656367,4.78582271608554e-05
0.000460764833626803,0.000436707481443186,0.0044168805775678,0.00961393761568573,0.00240348199482373,0.110111329495491,-0.00932348811139973,4.79459140874933e-05
0.000464604979144294,0.000469287738176648,0.00433023947808654,0.00946712821289317,0.00246657964586169,0.11237913221368,-0.0120205206887393,4.83049973302314e-05
0.000467653059184448,0.000504682743010993,0.00423752848753634,0.00930515632021207,0.00252358957561121,0.114391857141933,-0.0140675956640079,4.89226927206553e-05
0.00046993361596721,0.000542763335650943,0.00413993743100928,0.00913038671171639,0.00257409021795122,0.116135460639285,-0.0155164650731628,4.97836926058564e-05
0.000471496474583682,0.000583366907403591,0.00403868037224113,0.00894543504674075,0.00261776630662869,0.117601374804373,-0.0164208574590788,5.08703874502499e-05
0.000472414439375189,0.000626297319264277,0.00393497887089746,0.00875313762637148,0.00265441085277825,0.118786724624559,-0.0168356585074061,5.2163123880335e-05
0.000472780442397948,0.000671325302499111,0.00383004616818391,0.00855651531608486,0.00268392539089593,0.119694447038761,-0.0168161401464308,5.36404956429202e-05
0.000472704229552638,0.000718189345224823,0.00372507232350092,0.00835873177129984,0.00270631863039797,0.120333316453175,-0.0164172461592063,5.5279664229011e-05
0.00047230869550332,0.000766597052464079,0.00362121021338766,0.00816304659547096,0.00272170362340492,0.12071788107502,-0.015692940632022,5.70567058172641e-05
0.000471725997343428,0.000816226964525862,0.00351956230388021,0.00797276440918613,0.00273029348631406,0.120868311992203,-0.0146956238119635,5.89469799467007e-05
0.000471093583365341,0.000866730826654562,0.00342116818390193,0.00779118086559047,0.00273239569198289,0.120810167033697,-0.0134756182941424,6.09255132599438e-05
0.000470550266044949,0.000917736315057347,0.00332699289989745,0.00762152645435595,0.00272840500672755,0.120574074215778,-0.0120807269884286,6.29673900295276e-05
0.000470232449767756,0.00096885023401965,0.00323791608927908,0.00746690880811279,0.00271879523594386,0.120195341667977,-0.0105558630616065,6.50481403617629e-05
0.000470270598849516,0.00101966219970811,0.0031547218419562,0.00733025437260598,0.00270411000369091,0.119713499647876,-0.00894275100474037,6.71441164744458e-05
0.000470786006114748,0.00106974881239825,0.00307808926319627,0.00721425064048473,0.00268495277824202,0.119171777040321,-0.00727969707804019,6.92328470198586e-05
0.000471887900222581,0.00111867828645535,0.00300858386751262,0.00712129049435465,0.00266197627291998,0.118616513910401,-0.00560142656412031,7.1293359413135e-05
0.000473670912428472,0.00116601546597386,0.00294665009473204,0.00705342039540598,0.00263587128091309,0.118096514003902,-0.00393898449998488,7.33064610939389e-05
0.000476212911837349,0.00121132712609658,0.00289260530129039,0.00701229410010402,0.00260735500720752,0.117662343689759,-0.00231969587837989,7.52549726356434e-05
0.000479573213414712,0.00125418745747279,0.00284663552323208,0.00699913332773416,0.0025771590251223,0.117365583622077,-0.000767180725975086,7.7123907573245e-05
0.000483791164789902,0.00129418364980799,0.00280879323050704,0.00701469650396364,0.00254601705893036,0.11725803648679,0.000698581012579282,7.89005940692766e-05
0.000488885123767063,0.0013309215170561,0.00277899726833454,0.00705925646930892,0.00251465282197788,0.117390892981563,0.00206114022457683,8.05747322181856e-05
0.000494851843512972,0.00136403112366058,0.00275703517850146,0.00713258781949459,0.00248376809235036,0.117813861301511,0.00330743070871705,8.21383810920114e-05
0.000501666279919295,0.0013931723603835,0.0027425680601273,0.00723396426909654,0.002454031139178,0.118574271266884,0.00442758841946513,8.35858734147895e-05
0.000509281822087548,0.0014180403770583,0.00273513804282858,0.00736216607902685,0.00242606560916853,0.119716169660075,0.00541474373537401,8.49136617266261e-05
0.000517630931244836,0.00143837074014889,0.00273417831597096,0.00751549719988842,0.00240044004681768,0.121279425330919,0.00626479252240111,8.6120105693739e-05
0.000526626169341569,0.00145394417956072,0.00273902552954105,0.00769181143997055,0.00237765829030166,0.123298860556211,0.00697615157860725,8.72052136511596e-05
0.000536161606335248,0.00146459082138772,0.00274893429209739,0.00788854675538698,0.00235815099340391,0.12580342291862,0.00754950379250578,8.81703513611412e-05
0.000546114604220066,0.00147019384947497,0.00276309343384235,0.00810276671356414,0.0023422684633677,0.128815413302486,0.00798753804331736,8.90179288498046e-05
0.000556347974118514,0.00147069257040997,0.00278064364104595,0.00833120823942171,0.00233027494875097,0.132349789470657,0.00829468852254158,8.97510755506088e-05
0.00056671248746989,0.00146608484913449,0.00280069597560606,0.00857033477086047,0.00232234450661253,0.136413567932988,0.0084768777639441,9.03733158853635e-05
0.000577049706744749,0.0014564288402686,0.00282235072086584,0.00881639379207057,0.00231855858593129,0.141005346701124,0.0085412672358553,9.08882601621665e-05
0.000587195093769215,0.00144184391196768,0.0028447160132833,0.00906547745998518,0.00231890542897347,0.146114967594815,0.0084960188795734,9.12993270488828e-05
0.00059698134620528,0.00142251067884419,0.00286692581857282,0.00931358495172938,0.00232328131364827,0.151723331979305,0.00835007047769227,9.16095124851268e-05
0.000606241895994987,0.00139867011521893,0.00288815691907828,0.00955668532585426,0.00233149359832887,0.157802380720144,0.00811292721946271,9.18212162613522e-05
0.000614814485865878,0.00137062177637051,0.00290764461705038,0.00979077999537563,0.00234326551059416,0.164315246888207,0.00779447131331296,9.19361334844652e-05
0.000622544736154739,0.00133872118019453,0.00292469680597785,0.0100119641832609,0.00235824260558312,0.171216586232897,0.00740479098884426,9.19552141643983e-05
0.000629289622773941,0.00130337637915048,0.00293870601551014,0.0102164867971262,0.00237600076561443,0.178453084425099,0.0069540297345928,9.18786897926439e-05
0.000634920794563757,0.00126504371044838,0.00294915909203183,0.0104008079456533,0.00239605552786826,0.185964132968903,0.00645225613330084,9.17061619823241e-05
0.000639327651504877,0.00122422270018721,0.00295564432773726,0.0105616530390669,0.00241787247406023,0.193682660343585,0.00590935418563255,9.14367457856875e-05
0.000642420088381815,0.00118145012632565,0.00295785603416712,0.0106960623906072,0.00244087842721319,0.201536102175422,0.00533493356955676,9.10692584167309e-05
0.000644130804608332,0.00113729329748016,0.00295559670161159,0.0108014355070335,0.00246447325294139,0.209447493047912,0.00473825888600585,9.06024414273294e-05
0.00064441710103085,0.00109234265467197,0.00294877693470797,0.0108755696578258,0.00248804211315014,0.217336661233834,0.00412819660307407,9.00352010017625e-05
0.000643262118647128,0.00104720382732246,0.0029374132976465,0.0109166926319992,0.00251096802427369,0.22512150403286,0.00351317813206308,8.93668493883299e-05
0.000640675503909963,0.00100248926037816,0.00292162412871679,0.0109234896421273,0.00253264451136793,0.232719314279763,0.00290117724163119,8.85973322059237e-05
0.000636693493609862,0.000958809498967459,0.00290162339391694,0.0108951240640717,0.00255248807585136,0.24004812106094,0.00229969982458952,8.7727430656148e-05
0.000631378401870229,0.000916764213832616,0.00287771274591165,0.0108312513504701,0.00256995018464488,0.247028005394835,0.00171578385371601,8.67589324504519e-05
0.000624817491751018,0.000876933084533745,0.00285027208513218,0.0107320253613355,0.00258452855130665,0.2535823564202,0.00115600719583934,8.56947681120683e-05
0.00061712124068834,0.000839866706751407,0.00281974902403933,0.010598096582022,0.00259577757879532,0.25963904324387,0.000626500846460523,8.45391088531241e-05
0.000608421049446952,0.000806077728299082,0.00278664768524167,0.0104306021241778,0.00260331792498011,0.265131487515852,0.000132965154287522,8.32974204786052e-05
0.000598866475444827,0.0007760324264894,0.002751517201794,0.0102311478486266,0.00260684519952061,0.269999626572932,-0.000319313268753441,8.19764685876615e-05
0.000588622076840107,0.000750142917296597,0.00271494017558536,0.0100017832133282,0.00260613778102753,0.274190753428869,-0.000725446044761267,8.05842744628995e-05
0.00057786394296551,0.000728760158889155,0.00267752126437772,0.00974496938627082,0.00260106365749776,0.277660213280136,-0.00108093078901927,7.91300265329613e-05
0.00056677598772498,0.000712167897790575,0.00263987603762779,0.00946354087702471,0.0025915860909877,0.28037193647081,-0.00138164378871791,7.76239568463735e-05
0.000555546101538642,0.000700577699904124,0.00260262024812564,0.00916066082401115,0.00257776785567184,0.282298797235412,-0.00162383911343576,7.60771939625821e-05
0.000544362277925723,0.000694125199449753,0.00256635968461378,0.00883977032605125,0.00255977381606946,0.28342280164299,-0.00180415546734934,7.45016025693187e-05
0.000533408835931761,0.000692867680079678,0.00253168077344024,0.00850453269378743,0.00253787168358932,0.283735121173903,-0.0019196317412172,7.2909616929868e-05
0.000522862845952644,0.000696783073285486,0.0024991420604986,0.00815877398261021,0.00251243088691972,0.28323599503909,-0.001967731753867,7.13140719295832e-05
0.000512890849165294,0.000705770422276904,0.00246926661751473,0.00780642144218184,0.0024839195834965,0.281934521615823,-0.00194637818422879,6.97280332727592e-05
0.000503645950668057,0.000719651818793154,0.00244253531317808,0.00745144146808547,0.00245289989557674,0.27984834977902,-0.00185399528257055,6.81646274346559e-05
0.000495265356602471,0.000738175779055122,0.002419380834068,0.00709777836491979,0.00242002145132146,0.277003273143116,-0.00168955966038207,6.66368721538605e-05
0.000487868407423922,0.000761021984072111,0.00240018235458517,0.0067492949989977,0.00238601324282737,0.273432729367949,-0.00145265822699189,6.5157509224855e-05
0.000481555135549797,0.000787807271195182,0.00238526081013222,0.00640971635579116,0.0023516737270797,0.269177211201602,-0.00114355205527352,6.37388426026216e-05
0.000476405352027493,0.000818092734415125,0.00237487476702607,0.00608257704595623,0.00231785907151157,0.264283602564691,-0.000763244606271245,6.23925858182209e-05
0.00047247824349384,0.000851391774608303,0.00236921685877144,0.00577117382554811,0.00228546951211857,0.258804458688015,-0.000313552380288391,6.11297229739411e-05
0.000469812441685316,0.000887178935164415,0.00236841071160299,0.0054785241544933,0.00225543392673438,0.252797251532923,0.000202824253389505,5.99603867672404e-05
0.000468426519709218,0.000924899352893543,0.00237250830861297,0.00520733169648164,0.00222869288204575,0.24632359839741,0.000782232527180626,5.88937549105999e-05
0.000468319869572493,0.000963978635750006,0.00238148784577974,0.00495995946995175,0.00220618053177337,0.239448482614695,0.00142000365984964,5.79379636443414e-05
0.000469473914877818,0.0010038329514175,0.00239525223559144,0.00473841110729299,0.00218880577597741,0.232239465567458,0.00211039682990177,5.71000352590566e-05
0.000471853602886365,0.00104387910128451,0.00241362843737051,0.00454432038751777,0.0021774330478894,0.2247658853696,0.0028465534471474,5.6385816447475e-05
0.000475409104528666,0.00108354437750629,0.00243636774405897,0.00437894891240497,0.00217286306638232,0.217098040636064,0.00362046445575123,5.57999257516009e-05
0.000480077643883696,0.00112227604537288,0.00246314712539264,0.00424319152486841,0.00217581393444677,0.209306364897884,0.00442295339965273,5.53457107512726e-05
0.000485785386600368,0.0011595503351052,0.00249357175416169,0.00413758881240142,0.00218690304310012,0.20146060411649,0.00524367793429469,5.50252180013459e-05
0.000492449334754712,0.0011948808410204,0.00252717888337186,0.00406234579965823,0.00220663029648358,0.193629012032757,0.00607115236469848,5.48391799838641e-05
0.00049997919470725,0.00122782620428039,0.00256344325307026,0.00401735575965101,0.00223536316400036,0.185877573895863,0.00689279362237983,5.47870227691046e-05
0.00050827919473797,0.00125799693071999,0.00260178416713987,0.00400222798865776,0.00227332399575292,0.17826926318468,0.0076949928601615,5.48668961661429e-05
0.000517249823937787,0.00128506120430861,0.00264157429322719,0.00401631834920696,0.00232057996848542,0.170863335102565,0.00846321454538563,5.50757264580234e-05
0.000526789450494676,0.00130874959897119,0.00268215011614983,0.00405876130791236,0.00237703599013215,0.163714665077981,0.00918212457032207,5.54092909480269e-05
0.000536795775100196,0.00132885864552028,0.00272282384888725,0.00412850210858277,0.00244243085274531,0.15687314599019,0.0098357484780442,5.58623129484313e-05
0.000547167090357183,0.00134525325133291,0.00276289651410881,0.00422432779190967,0.00251633685097939,0.15038316004709,0.0104076604320976,5.64285751126445e-05
0.00055780334210121,0.00135786797585932,0.00280167186899314,0.0043448960684263,0.0025981629793945,0.14428313815355,0.010881203048666,5.71010482691401e-05
0.000568607011318255,0.00136670713336209,0.00283847084969475,0.00448876147644927,0.00268716172467518,0.138605213971225,0.0112397376663501,5.78720325467209e-05
0.00057948384404684,0.00137184366701341,0.00287264623362592,0.00465439865307699,0.0027824393909093,0.133374976606976,0.0114669240548387,5.87333077116594e-05
0.000590343446864093,0.00137341675758624,0.0029035972173726,0.00484022276920517,0.00288296982013988,0.12861132589693,0.0115470279634854,5.96762897832456e-05
0.000601099751206164,0.00137162819136968,0.00293078354945032,0.00504460717593146,0.00298761128456501,0.124326435615166,0.0114652542880721,6.06921902427909e-05
0.000611671349842219,0.00136673758355658,0.00295373876591529,0.00526589820758863,0.00309512623504217,0.12052583066625,0.011208102992192,6.17721724415506e-05
0.000621981723769745,0.00135905659673181,0.00297208204753977,0.00550242706723012,0.00320420350510461,0.117208583066798,0.0107637442622963,6.29074989415828e-05
0.000631959395791599,0.00134894228595181,0.00298552829271686,0.00575251879900731,0.0033134824946279,0.114367627673421,0.0101224087055503,6.40896648190466e-05
0.000641538054881514,0.00133678966897007,0.00299389613418306,0.00601449845376748,0.00342157877586417,0.111990193096029,0.00927678772117243,6.53105147082807e-05
0.00065065668504348,0.00132302361658645,0.00299711373027874,0.0062866946305666,0.00352711045063577,0.110058338502869,0.00822243850113193,6.65623437994647e-05
0.000659259710503407,0.00130809019366115,0.00299522216350035,0.00656744062941858,0.00362872446722055,0.108549584334833,0.00695818747426401,6.78379834429436e-05
0.00066729715438009,0.00129244763034922,0.00298837624362781,0.00685507351230498,0.00372512206634475,0.107437623701372,0.00548652543071314,6.91308706711136e-05
0.000674724807652634,0.00127655713905267,0.00297684258193311,0.00714793146257049,0.00381508261103921,0.106693100437349,0.00381398706971743,7.04351003997294e-05
0.000681504412997057,0.00126087379854103,0.00296099498476248,0.00744434993053938,0.00389748523175641,0.106284438799114,0.00195150731445068,7.1745460628457e-05
0.000687603874229182,0.00124583769696009,0.00294130739727155,0.00774265706928316,0.00397132790478047,0.106178708486583,-8.52535600646616e-05,7.30574534949111e-05
0.000692997497248541,0.00123186547264721,0.00291834469922824,0.00804116881816512,0.00403574367832967,0.106342507465155,-0.00227562413318915,7.43673068158357e-05
0.000697666248208687,0.00121934234807929,0.00289275161782033,0.0083381837896194,0.00409001372170885,0.106742844287456,-0.00459368361699201,7.56719805044814e-05
0.000701597990495258,0.00120861473889557,0.0028652400148142,0.00863197809887658,0.00413357682004841,0.107348001044798,-0.00700807943893621,7.69691699420659e-05
0.000704787652891619,0.00119998353398426,0.00283657489354744,0.00892080049973887,0.0041660350354767,0.108128356635912,-0.00948190876603586,7.82573057195812e-05
0.000707237291351196,0.00119369816995714,0.0028075595880878,0.0092028685174312,0.00418715550420585,0.109057146910148,-0.0119726719132086,7.9535547868202e-05
0.000708956027383785,0.00118995164486175,0.00277902065198763,0.00947636653245775,0.00419686862458019,0.110111135598727,-0.0144323052326889,8.08037729594093e-05
0.000709959863435612,0.00118887661306095,0.00275179291831875,0.00973944683749222,0.00419526308363983,0.111271171517353,-0.0168073005265669,8.20625537440798e-05
0.000710271375893457,0.00119054266873629,0.00272670511845874,0.0099902345017371,0.00418257818648979,0.112522614130442,-0.0190389172411684,8.33131325306806e-05
0.000709919268867969,0.00119495487929608,0.0027045664093475,0.0102268365030211,0.004159193848183,0.11385561924951,-0.0210634926926172,8.45573903053729e-05
0.000708937760610023,0.00120205360092769,0.00268615415880353,0.0104473552458699,0.00412561854954053,0.115265286179043,-0.0228128543499399,8.5797812704869e-05
0.000707365788565249,0.00121171559954221,0.00267220331894992,0.0106499064184682,0.00408247561010807,0.116751673684283,-0.024214836785128,8.70374511924557e-05
0.000705246051676271,0.00122375649698229,0.00266339764112312,0.0108326411226654,0.00403048823216916,0.118319692839541,-0.0251939043189177,8.82798748959179e-05
0.00070262393987502,0.00123793454859148,0.00266036287300185,0.0109937722335348,0.00397046384134413,0.119978882416264,-0.0256718786883813,8.95291075969871e-05
0.000699546411563438,0.00125395572269897,0.00266366198649377,0.0111316048824433,0.00390327823591876,0.121743072069281,-0.0255687692931954,9.07895456073389e-05
0.000696060866235963,0.00127147999964857,0.00267379242021308,0.0112445707009745,0.0038298599402104,0.123629941516976,-0.0248037018108243,9.20658549709666e-05
0.000692214043584323,0.00129012876077237,0.00269118524540413,0.0113312650243741,0.00375117499034589,0.125660487952456,-0.0232959392505249,9.33628494766893e-05
0.000688050982632767,0.00130949310897102,0.00271620605817263,0.0113904858563719,0.00366821226322508,0.127858416651646,-0.0209659877658238,9.46853529828175e-05
0.000683614089459061,0.0013291429431365,0.0027491573034697,0.0114212732364679,0.00358196942696446,0.130249470005716,-0.0177367776138168,9.60380492270061e-05
0.000678942375099374,0.00134863658062195,0.00279028168868225,0.0114229477016962,0.00349343961086648,0.132860708448315,-0.0135349074783701,9.74253196110466e-05
0.000674070924199069,0.00136753067565039,0.00283976632209943,0.0113951466429816,0.00340359890639457,0.135719754546532,-0.00829193799303349,9.88510670595066e-05
0.000669030635461252,0.00138539013952013,0.00289774715870206,0.0113378573162193,0.00331339475915322,0.13885401042646,-0.00194571778511282,0.000100318524488677
0.000663848247022116,0.00140179776477573,0.00296431325525725,0.0112514449818983,0.00322373519669597,0.142289858984267,0.00555827716193696,0.000101830049583139
0.000658546639543609,0.00141636329275862,0.00303951031953892,0.0111366743936365,0.00313547875975853,0.146051859414789,0.0142656123948604,0.000103386911910546
0.000653145400376825,0.0014287317163921,0.00312334313032516,0.0109947230214853,0.00304942503802981,0.150161945219724,0.0242115956815429,0.000104989081933809
0.000647661628537568,0.00143859063972124,0.0032157765460039,0.010827184975929,0.00296630582064546,0.154638629283294,0.0354200344229963,0.000106635032339908
0.000642110957385959,0.0014456765014399,0.00331673490460177,0.0106360652840373,0.00288677697368261,0.159496221081809,0.0479020751887431,0.00010832155971686
0.000636508765155427,0.00144977945268582,0.00342609960088958,0.0104237645733639,0.0028114111758397,0.164744067595908,0.061655150393336,0.000110043631324495
0.000630871527749063,0.0014507467216971,0.00354370462958649,0.0101930541825136,0.00274069157390751,0.170385839037887,0.0766620563775052,0.000111794260505477
0.000625218243562323,0.00144848440022343,0.00366933004138866,0.00994704164441305,0.00267500636509128,0.176418888252523,0.092890186519564,0.000113564415367419
0.000619571840739426,0.00144295770517633,0.00380269353492535,0.00968912684879301,0.00261464435312287,0.182833714505601,0.110290942568413,0.000115342967370848
0.000613960477826362,0.0014341898523529,0.00394344067123957,0.00942294990069847,0.00255979163154292,0.189613558285096,0.128799347035594,0.000117116687997868
0.000608418668290518,0.00142225969464041,0.00409113431938827,0.00915233238683667,0.00251052965291855,0.196734148823975,0.148333878978206,0.000118870301692159
0.000602988186457736,0.00140729825143603,0.00424524390540279,0.00888121411921464,0.0024668349865801,0.204163623419078,0.168796554519734,0.000120586601055593
0.000597718732197061,0.00138948425774724,0.00440513500000811,0.00861358733884835,0.00242858102258752,0.211862635048337,0.190073271582232,0.000122246625803968
0.000592668332134785,0.00136903890874722,0.00457005986387764,0.00835343006196909,0.00239554178467265,0.219784659217262,0.212034435053926,0.000123829901816883
0.000587903439878781,0.00134622003477933,0.00473914972261972,0.00810464003344974,0.00236739793740027,0.227876502371184,0.234535873433379,0.000125314733224458
0.00058349869001966,0.00132131597438209,0.00491140966048114,0.00787097061014118,0.00234374501799456,0.236079005941559,0.257420050306912,0.000126678539756392
0.000579536275272344,0.00129463939763466,0.00508571701968254,0.00765596970188937,0.00232410385420435,0.244327933502662,0.280517563948079,0.000127898232933803
0.000576104947718699,0.00126652128095536,0.00526082404731311,0.00746292261158105,0.00230793302548231,0.252555021382936,0.303648917719821,0.000128950626809799
0.000573298681108366,0.00123730518115199,0.00543536529589523,0.00729479930717862,0.00229464310139422,0.260689163511519,0.326626535067666,0.00012981288023332
0.000571215058622415,0.00120734190859642,0.00560787002088693,0.00715420644355264,0.00228361226812684,0.268657692007063,0.349256986838924,0.000130462966504955
0.00056995345942104,0.00117698464485051,0.00577677954222549,0.00704334440692231,0.00227420284341732,0.276387711036713,0.371343395755553,0.000130880162197337
0.000569613105492619,0.0011465844997532,0.00594046927020432,0.00696396975717677,0.00226577811906665,0.28380744409553,0.392687982655022,0.000131045541630423
0.000570291010559505,0.00111648647644144,0.00609727484361105,0.00691736356571153,0.00225771898401596,0.290847561750269,0.413094720051336,0.000130942460148435
0.000572079862525869,0.00108702580223224,0.00624552156182185,0.0069043061253077,0.0022494398539497,0.297442463625105,0.43237205784202,0.000130557009059122
0.000575065873397353,0.00105852456407731,0.00638355606446221,0.00692505833355812,0.00224040351832642,0.303531489642819,0.450335679733977,0.000129878427314013
0.000579326639961132,0.00103128855383884,0.00650977913431763,0.00697934995917705,0.0022301345532872,0.309060029062465,0.46681123515858,0.000128899458679001
0.000584929068689139,0.0010056042155607,0.00662267859665839,0.0070663751295552,0.0022182309172326,0.313980489028495,0.481636976620376,0.000127616646842015
0.00059192742508252,0.000981735620352646,0.00672086148303223,0.00718479560861775,0.00220437332307351,0.318253087101835,0.494666227800039,0.000126030562823849
0.000600361568951909,0.000959921459991471,0.00680308478318802,0.00733275257920546,0.00218833205810601,0.321846445332967,0.505769617088916,0.000124145957598243
0.000610255432582632,0.000940372114284583,0.006868284092312,0.00750788758036134,0.00216997109227519,0.324737981277066,0.514837030871409,0.00012197182904752
0.000621615788530455,0.000923266877693775,0.00691559928352936,0.00770737298357117,0.00214924951155368,0.326914106764007,0.521779262969527,0.000119521390937185
0.000634431336938122,0.000908751419994696,0.00694439622932621,0.00792795205975,0.00212622045855488,0.328370251708553,0.526529351227961,0.000116811935284993
0.00064867211771641,0.000896935538077105,0.00695428372818573,0.00816598839134013,0.00210102780419444,0.329110725158388,0.529043590823128,0.000113864587092339
0.000664289227861741,0.000887891264470901,0.00694512511712861,0.00841752411256447,0.0020739007349405,0.329148416087365,0.529302199541551,0.000110703958831343
0.000681214812844729,0.000881651425672345,0.0069170444294765,0.00867834619910366,0.00204514641759321,0.328504333584795,0.527309601332702,0.000107357717858089
0.000699362309177079,0.000878208767125406,0.00687042723792467,0.00894405978664747,0.00201514094353864,0.327206992744763,0.523094302653164,0.000103856080741569
0.000718626937694773,0.000877515764494124,0.00680591638148703,0.00921016728981254,0.0019843188264663,0.325291664515961,0.516708357747344,0.000100231246317664
0.000738886472475289,0.0008794852171767,0.00672440261396852,0.00947215190675567,0.00195316139246027,0.322799519492454,0.508226445053101,9.65167792538512e-05
0.000760002325804386,0.00088399168031401,0.00662701006087532,0.00972556387310058,0.0019221844360632,0.319776701868844,0.497744598299781,9.27469593654889e-05
0.000781820985478609,0.000890873753464308,0.00651507644650834,0.00996610750121964,0.0018919255116635,0.316273366754498,0.485378645043525,8.89561163235411e-05
0.000804175816357108,0.000899937211690961,0.00639012833880744,0.0101897266801172,0.00186293118520669,0.312342703438826,0.471262398345226,8.51779721358599e-05
0.000826889207547462,0.000910958930556572,0.00625385202672186,0.0103926863557226,0.00183574449222492,0.308039958589971,0.455545629887155,8.14450136856901e-05
0.000849775025466757,0.00092369151560438,0.00610806094489531,0.0105716476783564,0.00181089276065404,0.30342147323321,0.438391841140291,7.77879148863886e-05
0.000872641323951234,0.000937868508711102,0.00595466066829772,0.0107237348979311,0.00178887590066197,0.298543753067525,0.419975851764,7.42350236963962e-05
0.000895293262774988,0.000953210022711729,0.00579561238294383,0.0108465924755798,0.00177015525654695,0.2934625968026,0.400481237635762,7.08119247046425e-05
0.000917536192299886,0.000969428652418136,0.00563289556019029,0.0109384309939796,0.00175514314995063,0.288232305621336,0.380097667408726,6.75410842574854e-05
0.000939178870138725,0.000986235511409912,0.00546847053067188,0.0109980602776991,0.00174419329412638,0.282904987867766,0.359018199071791,6.44415823557062e-05
0.00096003677876521,0.00100334623161938,0.00530424178050047,0.0110249081424635,0.00173759228909051,0.277529964660784,0.337436601222527,6.15289334800114e-05
0.000979935502210172,0.00102048673530478,0.00514202296100347,0.0110190237266651,0.00173555238752362,0.272153280195506,0.315544755598413,5.88149965495009e-05
0.000998714090089453,0.00103739857767602,0.00498350468802676,0.010981065272349,0.0017382056710644,0.266817321501454,0.293530182293451,5.63079719483159e-05
0.00101622829980298,0.00105384368736344,0.00483022612946694,0.0109122731330473,0.00174559975652447,0.261560549866194,0.271573716721869,5.40124810240612e-05
0.00103235358716722,0.00106960839143172,0.0046835511723237,0.0108144293015187,0.0017576951761099,0.256417337914379,0.249847362114202,5.19297211932026e-05
0.00104698772271249,0.00108450667341664,0.00454464973518134,0.0106898047429331,0.00177436460934753,0.251417899205553,0.228512340875932,5.00576882932649e-05
0.00106005294008206,0.00109838264514239,0.00441448457549001,0.010541095714995,0.00179539414654874,0.246588297289004,0.20771736920589,4.8391456991955e-05
0.00107149756079851,0.0011111122037088,0.00429380371363093,0.0103713505418953,0.00182048671559961,0.241950525857861,0.187597179489298,4.69235090752025e-05
0.00108129706722162,0.0011226038292721,0.00418313840244499,0.0101838889227249,0.00184926772532269,0.237522654633484,0.168271312727354,4.56440978752087e-05
0.00108945459440318,0.00113279850001994,0.0040828064205612,0.00998221646177715,0.00188129290065895,0.233319032133217,0.149843198127873,4.45416362330155e-05
0.001096000784609,0.00114166875564627,0.00399292030324418,0.00976993740912884,0.00191605820557094,0.229350528988957,0.132399529162922,4.36030962737721e-05
0.00110099293424576,0.00114921700243012,0.00391339995347892,0.00955066847654292,0.00195301165825321,0.225624802342147,0.116009936042605,4.28144110056079e-05
0.00110451339072999,0.00115547319400816,0.00384398898354139,0.00932795623279989,0.00199156675172059,0.222146565929194,0.100726945935096,4.21608686322042e-05
0.00110666721711737,0.00116049202361517,0.00378427414037806,0.00910520027182591,0.00203111710988513,0.218917858301549,0.0865862159799144,4.162749000323e-05
0.00110757920707678,0.00116434973011524,0.00373370721300401,0.00888558409373405,0.00207105192276492,0.215938308386093,0.0736070201021593,4.11993796246844e-05
0.0011073903712125,0.00116714058613906,0.00369162885702322,0.00867201530238299,0.00211077162244828,0.213205399203251,0.0617929682152588,4.086204237295e-05
0.00110625401052562,0.00116897312960505,0.00365729377929535,0.00846707627401108,0.00214970322594016,0.210714725613607,0.0511329350294227,4.06016603435626e-05
0.00110433146715965,0.00116996621757663,0.00362989670136935,0.00827298598507147,0.00218731480370571,0.208460235257418,0.0416021748822809,4.04053253206508e-05
0.00110178764187294,0.00117024501009365,0.00360859845563727,0.0080915732369172,0.00222312861316482,0.20643444060309,0.0331635983982666,4.02612222784929e-05
0.00109878640033931,0.00116993701520991,0.00359255144921535,0.00792426108453183,0.0022567325156467,0.204628595549792,0.0257691860785841,4.01587604597748e-05
0.00109548603349781,0.00116916832817583,0.00358092359735831,0.00777206196978601,0.00228778931762123,0.203032838943344,0.0193615129373321,4.00886516708295e-05
0.00109203496415981,0.00116806016869231,0.00357291979514532,0.00763558294054225,0.00231604364180142,0.201636314815514,0.013875356964892,4.0042938776128e-05
0.00108856788491422,0.00116672577952353,0.00356780013184971,0.00751504035148649,0.00234132593964131,0.200427280683488,0.00923936272645473,4.00149790007834e-05
0.00108520247621799,0.0011652677306974,0.00356489432856282,0.00741028347461967,0.00236355338013329,0.199393210502614,0.00537773036044995,3.9999386570147e-05
0.0010820368191357,0.00116377568151307,0.00356361219785878,0.00732082637272242,0.00238272756395488,0.198520894429671,0.00221189999529517,3.9991939645623e-05
0.00107914760076606,0.00116232467112976,0.00356345014985399,0.00724588714940691,0.00239892923464973,0.197796538713668,-0.000337797951484123,3.99894583759734e-05
0.00107658919930947,0.00116097401818524,0.0035639938195779,0.00718443339494006,0.00241231029683021,0.197205873986099,-0.00235055523372107,3.99896629479448e-05
0.00107439371153179,0.00115976689557983,0.00356491688320782,0.00713523246996334,0.00242308346923935,0.196734284549952,-0.00390358852056643,3.99910213696229e-05
0.00107257194159649,0.00115873060548473,0.00356597626389841,0.00709690522698921,0.00243150989962609,0.196366971242269,-0.00507075878674927,3.99925959380624e-05
0.00107111532019253,0.0011578775316304,0.00356700419929428,0.00706798177907433,0.00243788516677644,0.196089154842753,-0.00592133264001686,3.99938958880115e-05
0.00106999867743604,0.00115720671371655,0.00356789790823677,0.00704695790425407,0.00244252427138827,0.195886319046634,-0.00651890997785685,3.99947425114785e-05
0.00106918374500407,0.00115670597178756,0.00356860771862333,0.00703235056904551,0.00244574637998943,0.195744486248666,-0.00692054167636294,3.99951519279158e-05
0.00106862320987609,0.0011563544935053,0.0035691244768071,0.007022750836484,0.00244786015682691,0.195650516181354,-0.00717606048787903,3.99952393597178e-05
0.00106826509458039,0.00115612577178433,0.00356946697851683,0.00701687210352845,0.00244915048157943,0.195592414601746,-0.00732764778740203,3.99951472352423e-05
0.00106805719864475,0.00115599073704602,0.0035696701412579,0.00701359127578968,0.00244986727830222,0.195559634554633,-0.00740965811642095,3.99949978114775e-05
0.00106795129248062,0.00115592087066901,0.00356977463489011,0.00701198022870237,0.0024502171433387,0.195543345056894,-0.00744872263979134,3.99948692496726e-05
0.00106790670241494,0.00115589102790249,0.00356981862747581,0.00701132472026684,0.00245035844501965,0.195536632198341,-0.00746415173301211,3.9994792072921e-05
0.00106789287236591,0.00115588164756852,0.00356983216364304,0.00701112774710555,0.00245040053694883,0.195534588049731,-0.00746865603096301,3.99947608488188e-05
