APL,FCR,FDS,FDP,ED,EI,ECU,ECR
0.0272213144029779,0.116152064855788,0.0170962710244598,-0.0252432703703405,0.0551504632163782,0.174959263568285,0.191682598281511,0.0436827873429772
0.0308267788726875,0.112481017155592,0.0455758255217264,-0.0113275666762216,0.0571935959832103,0.191252608664666,0.198215666563926,0.0507834975470756
0.0341693266140978,0.108649239068,0.0730252993233129,0.00239403355679558,0.0589812566925267,0.20711074273285,0.204503660403548,0.0573111262447772
0.0372211602016476,0.10469082267103,0.099235526469547,0.0158568743862135,0.0605027510616112,0.22245009389953,0.210506792676186,0.0632161826597375
0.0399587336571596,0.100644898357661,0.124014354370095,0.0290037285850867,0.0617525882438966,0.237198700852882,0.21619075865259,0.0684592308323978
0.0423631940659055,0.0965555883207693,0.14718981856161,0.0417857164683899,0.0627307862173738,0.251297517394341,0.221527476150837,0.0730117219536303
0.0444207015596846,0.0924718824198359,0.168612803919186,0.0541629406284094,0.0634430382571897,0.264701304024386,0.226495660333137,0.0768565349904873
0.0461226225588218,0.0884474245529171,0.188159144581492,0.0661048251146732,0.0639007324519627,0.277379081206924,0.231081217174225,0.0799882133625324
0.0474655997721434,0.0845401999126772,0.205731146529921,0.0775901640269504,0.0641208258084814,0.289314153012825,0.23527745699011,0.0824129046677002
0.0484515080838241,0.0808121168320497,0.221258533169788,0.0886068926641728,0.0641255819153401,0.300503733291281,0.239085142578892,0.084148023065607
0.0490873073934603,0.077328480710116,0.234698817953487,0.0991515977047001,0.0639421847559229,0.310958213710682,0.242512391920485,0.0852216583930856
0.0493848027655951,0.0741573611128742,0.246037113489451,0.109228788425761,0.0636022411186986,0.320700108367498,0.245574452100224,0.0856717563808882
0.0493603212489725,0.0713688557354372,0.255285401862076,0.118849959867139,0.0631411827128906,0.329762707154449,0.24829335235835,0.0855450963519621
0.0490343146713211,0.069034255531554,0.262481311757934,0.128032487662549,0.0625975792336453,0.338188477285492,0.250697437133366,0.0848960974342786
0.0484308983283654,0.0672251137323319,0.267686466549718,0.13679839960964,0.0620123753598872,0.346027265822934,0.25282077923836,0.0837854893863399
0.0475773363679351,0.0660122198326744,0.270984476833089,0.145173069200491,0.0614280670313782,0.35333436811504,0.254702478497417,0.0822788876874453
0.0465034856273512,0.0654644808399134,0.272478648690262,0.153183872478555,0.0608878345349119,0.3601685299394,0.256385859304932,0.0804453136160391
0.0452412105492209,0.0656477167487274,0.272289472115882,0.160858845561126,0.0604346514425042,0.366589943426404,0.257917587148243,0.0783556984825555
0.0438237822856616,0.0666233841883782,0.270551952001876,0.168225378143247,0.0601103890157876,0.372658288612015,0.259346724484112,0.0760814076350502
0.0422852747912895,0.0684472497111868,0.267412847113185,0.175308977624464,0.0599549351636164,0.378430871026529,0.260723739634069,0.0736928157102781
0.0406599693573104,0.0711680403135599,0.263027885628966,0.182132137704931,0.0600053453272407,0.383960905335454,0.262099475601279,0.0712579608144686
0.0389817772402277,0.0748261018749986,0.257559024858434,0.188713342859563,0.0602950399992889,0.38929598754209,0.263524085763013,0.0688413016632211
0.0372836888563605,0.0794520958964198,0.251171815785019,0.195066234761779,0.060853060935908,0.394476785859194,0.265045949228939,0.0665025977690916
0.0355972576014938,0.0850657634261312,0.244032921075764,0.201198958740868,0.0617033964819977,0.399535972409812,0.266710585394997,0.064295928752375
0.0339521260875378,0.0916747851185226,0.236307821913107,0.207113700488106,0.0628643859350306,0.404497413588866,0.268559589642974,0.0622688652554697
0.0323756018204412,0.0992737680938512,0.228158737806125,0.212806417792726,0.0643482131213484,0.409375628016815,0.270629607168638,0.0604618006732812
0.0308922878967218,0.107843392307702,0.219742774889169,0.218266768939798,0.0661604996830308,0.414175508612706,0.272951353711703,0.0589074495502027
0.0295237726963811,0.117349750203938,0.211210311569438,0.223478237391188,0.0683000081670429,0.418892300037824,0.275548689468383,0.0576305150202829
0.0282883812329429,0.127743912674979,0.202703625108263,0.228418450244081,0.0707584632571636,0.423511825311091,0.278437758132757,0.0566475245633518
0.0272009895446936,0.138961751443668,0.194355757776365,0.233059684430031,0.0735204967878215,0.428010955377791,0.281626212447935,0.0559668307966876
0.0262729021413165,0.150924042989716,0.186289614991147,0.237369548296698,0.0765637198817202,0.432358305935758,0.285112554297449,0.0555887717430213
0.0255117915257801,0.16353687260537,0.178617279400433,0.241311816780636,0.0798589241418386,0.436515135583865,0.288885615853747,0.0555059827175833
0.0249216984714072,0.176692349973173,0.171439517015897,0.244847389296404,0.0833704126275781,0.440436419636765,0.292924200525305,0.0557038495720749
0.0245030917227348,0.190269640289136,0.164845448586536,0.247935335490854,0.0870564594570183,0.444072081079389,0.297196898203308,0.0561610906752905
0.0242529855774904,0.204136307219426,0.158912361852625,0.250533996213001,0.0908698937624553,0.447368362890597,0.301662092917045,0.056850452998304
0.0241651130702909,0.218149955356234,0.153705645061235,0.252602113307786,0.0947587998774585,0.450269317122303,0.306268188079443,0.0577395062701933
0.024230151481991,0.23216015010368,0.149278824834948,0.254099968348053,0.098667322340391,0.45271837238463,0.310954078703511,0.058791518394654
0.0244359961594436,0.246010583305055,0.145673689528306,0.254990512735167,0.102536562168199,0.454659936325179,0.315649896744456,0.059966394833027
0.0247680781097096,0.259541445219771,0.142920476425454,0.255240466888327,0.106305549677253,0.456040995046971,0.320278044426317,0.0612216638495308
0.0252097201316466,0.272591958083566,0.141038104170091,0.254821358148413,0.109912278358004,0.456812679636553,0.324754515130218,0.0625134877873256
0.0257425251917756,0.285003022025522,0.140034441058211,0.253710463985008,0.113294783102037,0.456931772332822,0.328990486135889,0.0637976781414742
0.0263467895903551,0.296619917678701,0.139906610758474,0.25189163211992,0.116392243414108,0.456362115810556,0.332894152086281,0.0650306905664751
0.0270019323319315,0.307295000071529,0.140641344484921,0.249355959434664,0.119146088089567,0.455075874237759,0.336372752128021,0.0661705762471758
0.0276869310336698,0.316890310721143,0.142215389548176,0.246102322617533,0.121501074637378,0.453054589590624,0.339334729347865,0.0671778683856895
0.0283807541843157,0.325280036337616,0.144595980561509,0.242137761091122,0.123406317000774,0.450289987677591,0.34169195195923,0.0680163863749108
0.0290627800475954,0.332352753604943,0.147741376684506,0.23747771341544,0.124816238965996,0.446784509512663,0.343361924448333,0.0686539443969722
0.0297131937705687,0.338013414572025,0.15160146762059,0.232146101859565,0.125691436323711,0.442551563628765,0.344269923245225,0.0690629540282718
0.0303133555587803,0.342185037449542,0.156118450949671,0.226175252804726,0.125999435571038,0.437615501808347,0.344351001020079,0.0692209107029231
0.0308461332383186,0.344810066627054,0.161227582795583,0.21960564085272,0.125715337921345,0.432011313433905,0.343551808890522,0.0691107532904135
0.0312961922419972,0.345851360910012,0.166858003026813,0.212485452767667,0.124822334931536,0.425784030221639,0.341832181367485,0.068721088295953
0.0316502365617884,0.345292775981062,0.172933635612248,0.204869979937072,0.123312081351681,0.418987847419013,0.339166422302946,0.0680462760624338
0.0318971963469153,0.343139328348718,0.17937416427073,0.196820859790697,0.121184915392844,0.411684993588279,0.335544235928315,0.0670863836029086
0.0320283609014863,0.339416954013426,0.186096082496174,0.188405192647608,0.118449924951277,0.403944404765544,0.330971267722638,0.0658470143007043
0.0320374585866559,0.334171893993827,0.193013814695798,0.179694558492701,0.115124866878427,0.395840267963502,0.325469247256224,0.0643390265978358
0.0319206864651465,0.327469742794576,0.200040901035924,0.170763952637544,0.111235951721234,0.387450491738659,0.319075748669597,0.0625781531166295
0.0316766923319716,0.319394188948538,0.207091232157979,0.161690657833158,0.106817506572495,0.37885515129284,0.311843595058861,0.060584532107821
0.0313065114788158,0.310045474141452,0.21408031124807,0.152553074553666,0.101911525723994,0.370134953958535,0.303839929591337,0.0583821657445779
0.0308134613362254,0.299538605665857,0.220926512434135,0.143429537262607,0.0965671175940694,0.361369774203208,0.295144971410381,0.0559983228318745
0.0302029987262477,0.288001370373722,0.227552299697121,0.134397148667653,0.0908398586523892,0.352637306505277,0.285850480792616,0.0534629051210749
0.0294825460158655,0.275572208959788,0.233885370976335,0.125530663826162,0.0847910690429141,0.344011874542587,0.276057974054929,0.0508077957823607
0.0286612933378924,0.262398011574587,0.239859697575161,0.116901451359112,0.0784870280663062,0.335563420220621,0.265876746279693,0.0480662064092633
0.0277499839204819,0.248631888351693,0.245416437567281,0.108576552741987,0.0719981490115893,0.327356683574204,0.255421771295264,0.0452720367987358
0.026760688557976,0.234430957537277,0.250504710548209,0.100617855363017,0.0653981314080766,0.319450573306663,0.244811548929601,0.0424592601616033
0.0257065740238877,0.219954187000338,0.255082225698682,0.0930813903407381,0.0587631053945488,0.311897714508087,0.23416596124018,0.0396613449197643
0.0246016693945633,0.205360322471101,0.259115752495829,0.0860167607783628,0.0521707794876664,0.304744150618437,0.223604190416755,0.0369107225255655
0.0234606338658608,0.190805934680571,0.262581416334057,0.0794667006096924,0.0456996005541716,0.298029176899024,0.213242745547856,0.0342383087807284
0.0222985295085368,0.176443614840401,0.265464799028002,0.073466759246808,0.039427932896895,0.291785288931133,0.203193640714551,0.0316730840302474
0.0211306023338338,0.162420342032439,0.267760831315156,0.068045102876007,0.0334332616666551,0.286038233256931,0.193562759678015,0.0292417354407956
0.0199720748752161,0.148876037259894,0.269473478494225,0.063222420629623,0.027791424302023,0.280807142769364,0.184448432108122,0.0269683625024206
0.0188379531097089,0.135942309879887,0.270615235748151,0.0590119242361768,0.0225758725582133,0.276104733777184,0.175940234977955,0.0248742451920123
0.0177428498566559,0.123741395750413,0.271206460291635,0.0554194323153397,0.0178569670301334,0.271937545530544,0.168118022085915,0.0229776730233982
0.0167008258488792,0.112385282758472,0.271274568445364,0.0524435330715622,0.0137013058014454,0.268306215159046,0.161051174469805,0.021293832336352
0.0157252487872561,0.101975016967531,0.270853119011021,0.0500758197808563,0.010171088666157,0.265205792712337,0.154798056023079,0.0198347483267563
0.0148286701709274,0.0926001797687315,0.269980800119842,0.0483011924524803,0.00732351796694489,0.262626104330801,0.149405654245361,0.0186092773606728
0.0140227195450327,0.0843385221396626,0.26870034079891,0.0470982189191117,0.00521023649182705,0.260552165646675,0.144909386210794,0.0176231445070231
0.0133180158631585,0.0772557376855909,0.267057377530291,0.0464395502740435,0.00387680246545244,0.258964641168077,0.141333053092736,0.0168790213409195
0.0127240957275622,0.0714053542209848,0.265099314253006,0.0462923877266815,0.00336220156084782,0.257840344877072,0.138688930394761,0.0163766395576537
0.0122493581853317,0.0668287247760356,0.262874216865873,0.0466189991420384,0.00369839583140807,0.257152779156434,0.136977982458876,0.0161129361403293
0.0119010254382314,0.0635551015033612,0.260429778122263,0.0473772830650566,0.00490990971585002,0.256872707348118,0.136190187239744,0.0160822255399685
0.0116851182803171,0.0616017777690728,0.25781237799871,0.0485213763412364,0.00701345407460417,0.256968747709655,0.136304953720812,0.0162763941682556
0.0116064444669462,0.0609742833966757,0.255066254482659,0.0500022998448847,0.0100175902822885,0.257407969470226,0.137291615035352,0.0166851128830912
0.0116685977944136,0.061666617605558,0.252232794149926,0.0517686360149224,0.0139224371742158,0.258156471429027,0.139109986434776,0.0172960637603289
0.0118739655850144,0.0636615070330788,0.249349950184922,0.0537672316264948,0.0187194241710388,0.259179928088944,0.141710986075583,0.0180951778756897
0.0122237425417041,0.0669306824188865,0.246451795469253,0.0559439189144767,0.024391095007407,0.260444090933719,0.145037324405355,0.0190668808836455
0.0127179494421601,0.0714351744799762,0.243568217611246,0.0582442471354185,0.0309109685287084,0.261915228578793,0.149024271217339,0.0201943428888469
0.0133554556190186,0.0771256341402695,0.240724758958142,0.0606142147976859,0.0382434655354047,0.263560485121278,0.153600507180471,0.0214597285134888
0.0141340043053565,0.0839426832519977,0.237942596318059,0.063000991348903,0.0463439128708263,0.265348140969713,0.15868906258751,0.0228444423417728
0.0150502397432071,0.0918173020843501,0.235238644597794,0.0653536172448512,0.0551586371235147,0.267247774336233,0.164208344063685,0.0243293646238942
0.0160997350270597,0.100671262607732,0.232625761502584,0.0676236727194478,0.0646251600063627,0.269230336451736,0.170073248822855,0.02589507278253
0.0172770202988932,0.1104176212731,0.230113029567717,0.0697659069496237,0.07467250587461,0.271268160832514,0.176196362630583,0.0275220458814209
0.0185756118329147,0.120961288723252,0.227706095654446,0.0717388192118913,0.0852216297181303,0.273334923913724,0.182489231334894,0.0291908511993679
0.0199880432223645,0.132199694306182,0.225407553177779,0.073505181977089,0.096185971694163,0.275405570114358,0.188863689561157,0.0308823134460307
0.021505899910777,0.144023560022731,0.223217354313129,0.0750324949819757,0.107472141694,0.277456218235163,0.195233225356174,0.0325776673450292
0.0231198578864666,0.156317793623699,0.221133235387443,0.0762933609072829,0.118980734430739,0.279464075629353,0.201514354208582,0.0342586941160803
0.0248197271675964,0.16896250523015,0.21915113300048,0.0772657767747943,0.13060727219664,0.281407394297992,0.207627968600527,0.035907843149231
0.0265945009913769,0.181834145472611,0.21726556958202,0.0779333388069289,0.142243269070751,0.283265503326934,0.213500623279902,0.0375083418026142
0.0284324121144203,0.194806756440423,0.215469996219081,0.078285360330746,0.153777407319247,0.285018943716994,0.219065716252659,0.0390442977509956
0.0303209979873831,0.207753321247753,0.213757092249034,0.0783169014339822,0.165096814243115,0.286649717379653,0.224264531452838,0.0405007987089829
0.0322471765249091,0.220547193223611,0.21211902865428,0.0780287075710774,0.17608842565325,0.288141645729076,0.229047117982621,0.0418640134211378
0.0341973335867237,0.233063579488942,0.210547701548441,0.077427055301579,0.186640419829202,0.28948081701015,0.233372987648081,0.0431212963418442
0.036157422118352,0.245181045512709,0.209034935410163,0.0765235070577021,0.196643702022083,0.290656086103031,0.237211612596532,0.0442612970219164
0.0381130716100237,0.256783001153547,0.207572650553051,0.0753345814464939,0.205993413219318,0.291659579465648,0.240542699913938,0.0452740735864524
0.0400497057722261,0.267759128736598,0.206152988702355,0.0738813489470125,0.214590429613209,0.292487155799153,0.24335621972517,0.046151207975893
0.0419526663454346,0.27800671967526,0.204768393151412,0.0721889634114863,0.222342815262679,0.293138780936558,0.245652173082813,0.0468859195277105
0.0438073415986144,0.287431894528709,0.203411644354289,0.0702861379143539,0.229167192055268,0.293618789158777,0.247440102737831,0.0474731728559651
0.0455992988959816,0.295950686716225,0.20207585679252,0.0682045720423987,0.234989997300354,0.293936014399947,0.248738367438539,0.0479097749745895
0.0473144211156187,0.303489967671074,0.200754446653893,0.0659783385707994,0.239748606923731,0.294103776177127,0.249573212086496,0.0481944551642975
0.0489390461034758,0.309988184409439,0.199441079557729,0.0636432400014155,0.243392306617066,0.294139700484003,0.249977667498927,0.04832792061022
0.0504601068379533,0.315395880706594,0.198129602350424,0.0612361481651543,0.245883090813727,0.294065359327766,0.249990307571562,0.0483128821470735
0.0518652687852456,0.319675984957807,0.196813958127228,0.0587943415733871,0.247196263788734,0.293905728374109,0.249653888500494,0.0481540468784148
0.05314306100386,0.322803866415131,0.195488085140325,0.0563548545743731,0.247320818200556,0.293688483234142,0.249013899570056,0.0478580766957441
0.0542829987511653,0.324767178354505,0.19414580742587,0.0539538502580011,0.246259576998874,0.293443172061353,0.248117065074115,0.0474335125553583
0.0552756969483258,0.325565513717871,0.19278073320413,0.0516260273875549,0.244029099960862,0.293200308315298,0.247009847313124,0.0468906635985329
0.0561129749882944,0.325209893683829,0.191386181785013,0.0494040711632946,0.240659368734352,0.292990422207636,0.245737006754261,0.0462414596690627
0.05678795320466,0.323722102238847,0.18995515826466,0.0473181575905801,0.236193267850307,0.292843102017794,0.244340274242918,0.0454992671672982
0.0572951397134644,0.32113388100628,0.188480388167279,0.0453955207445094,0.230685874457151,0.292786056267098,0.24285718188554,0.0446786710683048
0.0576305046106614,0.317486007677716,0.186954414820077,0.0436600907929683,0.224203566550533,0.292844233441134,0.241320089076535,0.0437952288702791
0.0577915381503458,0.312827292220821,0.185369754053786,0.0421322084414661,0.216822964480756,0.29303904150764,0.239755432426315,0.0428652037726817
0.057777290636261,0.307213532007164,0.183719094894234,0.0408284193170138,0.208629730264811,0.293387709168957,0.238183221918009,0.0419052840013849
0.057588393588286,0.300706466576569,0.181995531772164,0.0397613501125224,0.199717257713402,0.293902822358652,0.236616797806397,0.0409322942986297
0.0572270633218202,0.293372763998054,0.180192813963424,0.0389396667092314,0.190185288822548,0.294592057255754,0.235062852355018,0.0399629058019609
0.0566970884343553,0.285283057208721,0.178305601141949,0.038368112598337,0.18013848713307,0.295458120177641,0.233521708160884,0.039013351611542
0.056003801397739,0.276511037456549,0.176329718178813,0.0380476239084863,0.169684991878321,0.296498893561828,0.231987832593836,0.0380991562128095
0.0551540326377152,0.267132606703425,0.174262404362478,0.0379755157003562,0.158934973765611,0.297707774807981,0.230450558222745,0.0372348867922007
0.0541560449852191,0.257225090662397,0.172102549500381,0.0381457329817761,0.147999214206406,0.299074185938594,0.228894973736593,0.0364339332188463
0.053019447563073,0.246866516759182,0.169850904959602,0.0385491589332192,0.136987731603932,0.300584228839302,0.227302948855016,0.0357083217170076
0.0517550901933109,0.236134964004961,0.167510258233727,0.0391739720128591,0.126008478104285,0.30222145830314,0.225654258038533,0.0350685657544911
0.0503749411714871,0.225107991685969,0.165085565991168,0.0400060429150692,0.11516612655927,0.303967737727127,0.223927767695711,0.0345235564342371
0.0488919517627065,0.2138621486144,0.162584048385864,0.0410293616643697,0.104560961320954,0.305804132958399,0.222102646776202,0.034080493453657
0.0473199096654601,0.202472555433632,0.160015251563368,0.0422264840963302,0.0942878810719169,0.307711797474113,0.220159553848422,0.0337448564397798
0.0456732820917308,0.191012545214069,0.157391083333748,0.0435789855645886,0.0844355188620907,0.309672808960015,0.218081752811264,0.0335204153089162
0.0439670486966049,0.179553346759274,0.154725822646885,0.0450679089382789,0.0750854831126032,0.311670928886194,0.215856117009989,0.0334092773591592
0.0422165255956092,0.168163799574488,0.152036102463825,0.0466741948238972,0.0663117223960512,0.313692266889744,0.213473994295776,0.0334119680203095
0.0404371833626007,0.156910095885002,0.149340867555615,0.0483790842608696,0.0581800155278698,0.315725835104716,0.210931917981493,0.0335275412809097
0.03864446329904,0.145855549709266,0.146661309584664,0.0501644867703354,0.0507475865146364,0.317763971627074,0.20823215529788,0.033753714534135
0.0368535966692438,0.13506039293139,0.14402077877674,0.0520133080964104,0.0440628411198913,0.319802604132695,0.20538308328761,0.0340870213029974
0.0350794307257768,0.124581593772765,0.141444667032958,0.0539097316549477,0.0381652186596638,0.321841326006634,0.202399377202239,0.0345229748542642
0.0333362639123379,0.114472689001526,0.138960256069108,0.0558394473147032,0.0330851502090821,0.323883270899506,0.199301997423902,0.0350562363630798
0.0316376918339546,0.104783621761568,0.136596525956185,0.057789822656971,0.0288441133744871,0.325934791790766,0.196117969724284,0.0356807826082987
0.0299964656911252,0.0955605811843772,0.1343839207269,0.0597500149736232,0.0254547739733717,0.328004968542763,0.19287996628487,0.0363900692912264
0.028424365402341,0.0868458451572978,0.13235406563553,0.0617110253810099,0.0229212058284139,0.330104975018982,0.18962570592832,0.0371771861366937
0.0269320900645005,0.0786776312680802,0.130539426943855,0.0636656979170078,0.0212391808677388,0.332247331743427,0.186397196679811,0.0380349992914685
0.0255291683992994,0.0710899615451291,0.12897290491665,0.0656086657865126,0.020396522438834,0.334445064428772,0.183239841040373,0.0389562767448185
0.0242238913231852,0.0641125442376904,0.127687355576952,0.0675362459134839,0.020373515036482,0.336710793167306,0.180201420634236,0.0399337941083578
0.023023267860269,0.0577706727899656,0.126715044206486,0.0694462839802401,0.0211433635551677,0.339055789648722,0.177330979128713,0.0409604202439132
0.0219330044504083,0.0520851408840444,0.126087039899139,0.0713379551026149,0.0226726947993361,0.341489053115062,0.174677629607206,0.0420291837254021
0.0209575064018553,0.0470721732405821,0.125832562444402,0.0732115285893084,0.0249220933458949,0.344016462993302,0.172289319851555,0.043133321148554
0.0200998989414596,0.0427433738100207,0.125978290731469,0.0750681070363732,0.0278466629868264,0.346640062890045,0.170211591468202,0.0442663072825604
0.0193620643148756,0.0391056949863787,0.126547641309901,0.0769093492666875,0.0313966042725922,0.349357518484695,0.168486365212981,0.045421866602467
0.0187446909318573,0.0361614326408113,0.127560030486185,0.0787371845600658,0.0355177987212361,0.352161779100154,0.167150780097852,0.046593966636626
0.0182473306998119,0.0339082515775661,0.12903014137239,0.0805535247887564,0.0401523913760207,0.35504096400753,0.166236112839152,0.0477767952755056
0.0178684613566281,0.032339244665426,0.130967224296258,0.0823599821299502,0.0452393655741192,0.357978486962378,0.165766805900754,0.0489647256808555
0.0176055515901358,0.031443027458663,0.133374461189263,0.0841576019910269,0.0507151066731974,0.360953422157384,0.1657596331708,0.0501522726771067
0.0174551277089351,0.0312038691854908,0.136248422027927,0.0859466224755579,0.0565139543767356,0.363941100512977,0.166223029409588,0.0513340434131557
0.0174128412545495,0.0316018600560681,0.139578638745684,0.0877262721736422,0.0625687453016544,0.366913909274715,0.16715660328976,0.0525046842098331
0.0174735369491795,0.0326131136586482,0.143347321592424,0.0894946166496493,0.0688113477159999,0.369842254551561,0.168550847863348,0.0536588260417146
0.0176313199856875,0.0342100023436685,0.147529242290187,0.0912484607001518,0.0751731889779584,0.372695639206656,0.170387058743534,0.0547910325083673
0.0178796216588307,0.036361423040074,0.152091804855663,0.0929833093679793,0.0815857747268448,0.375443807329707,0.172637467496552,0.0558957552436093
0.0182112630592047,0.039033090240615,0.156995318687995,0.0946933872796023,0.087981198743926,0.378057906779632,0.175265593070896,0.0569673014971226
0.0186185176924416,0.0421878520512172,0.162193481500595,0.0963717135475752,0.0942926435632156,0.380511616134935,0.178226807076962,0.0579998169472536
0.0190931749435513,0.0457860253175959,0.167634072318409,0.0980102280994982,0.100454873675031,0.382782171815351,0.181469102223045,0.0589872849056866
0.0196266068772244,0.0497857471856917,0.17325984650459,0.099599964730128,0.106404724774656,0.384851227766474,0.184934048675478,0.0599235422565627
0.0202098407905119,0.0541433422206876,0.179009616086269,0.101131266280147,0.112081593315558,0.386705492730137,0.188557918374321,0.0608023127494185
0.0208336393127018,0.0588137054168449,0.184819489910886,0.102594037772267,0.117427930123955,0.388337114121074,0.192272950580226,0.0616172589670509
0.0214885889211418,0.0637507014869206,0.190624240638715,0.103978033397917,0.122389739635937,0.389743801545315,0.19600872580691,0.0623620545997179
0.022165196732881,0.0689075797277775,0.196358760964158,0.105273172001746,0.126917082214619,0.390928695200403,0.199693613588149,0.0630304778307944
0.0228539944165676,0.0742374019074861,0.201959568998407,0.106469872486215,0.130964571575895,0.391899980963777,0.20325626169094,0.063616524467613
0.0235456470009466,0.0796934782936764,0.207366319337996,0.107559396402354,0.134491854508917,0.392670248476714,0.206627096720352,0.0641145369443385
0.024231063347788,0.085229804083854,0.212523270310619,0.108534182512991,0.137464057532812,0.39325559673378,0.209739804453566,0.0645193437894423
0.0249015044980988,0.0908014856533171,0.217380653765425,0.109388158621642,0.139852185448044,0.393674512808049,0.212532752729531,0.0648264038425613
0.0255486862679116,0.0963651449619863,0.221895897151336,0.110117019005014,0.141633459681037,0.393946573726277,0.214950317150921,0.0650319501005708
0.0261648733179832,0.101879292325969,0.226034658024803,0.11071846009659,0.142791588815354,0.394091039037736,0.216944075100047,0.0651331291372492
0.0267429631151387,0.107304662025988,0.22977164361042,0.111192370925338,0.143316967779729,0.394125404982737,0.218473844595131,0.0651281329762194
0.0272765592060811,0.112604509901666,0.233091196027957,0.111540976407318,0.143206803332241,0.394063981727572,0.219508556053054,0.0650163202772412
0.0277600334884841,0.117744874514025,0.235987623391042,0.111768929825631,0.142465160602903,0.39391654649226,0.220026951513593,0.0647983221586994
0.0281885765983305,0.122694802168035,0.238465254645225,0.11188334730233,0.141102922061783,0.393687127096308,0.220018104193994,0.0644761260591375
0.0285582349784513,0.127426533471057,0.240538202967472,0.11189377566019,0.139137651422515,0.393372978163516,0.21948174510852,0.0640531309600096
0.0288659334875606,0.13191564904571,0.242229840055098,0.111812087537638,0.136593361059315,0.392963817043519,0.218428381400636,0.0635341696227195
0.0291094834805327,0.13614117493194,0.243572004764209,0.111652302939113,0.133500189556391,0.392441381870241,0.216879196239296,0.0629254971657225
0.0292875776237567,0.140085652229749,0.244603985764363,0.111430342488431,0.129894002486725,0.39177935914594,0.214865730452247,0.0622347487071791
0.0293997737456474,0.143735178593709,0.245371322972053,0.111163722100777,0.125815931673519,0.39094370776835,0.212429357907262,0.0614708704028888
0.0294464702972035,0.147079429530615,0.245924467910414,0.110871199588832,0.121311865423001,0.389893385017273,0.209620576100997,0.06064402739946
0.0294288753498261,0.150111664132355,0.246317338719944,0.110572381019277,0.116431897697953,0.388581458879304,0.206498136933391,0.0597654904535843
0.0293489700543328,0.152828714719122,0.246605807019585,0.110287292152668,0.111229741919049,0.386956572980628,0.203128038894368,0.0588475025173144
0.0292094670142262,0.155230956928714,0.246846158386819,0.110035921170751,0.105762115479567,0.384964716566108,0.19958239550036,0.057903127820635
0.0290137642681693,0.15732225761461,0.247093571714013,0.109837742586876,0.100088102721309,0.382551239357994,0.195938193184452,0.0569460879300882
0.0287658961469026,0.159109901005941,0.247400662791951,0.109711236595422,0.0942685058106252,0.379663035766167,0.192275956542306,0.0559905908899613
0.0284704826587469,0.160604496339299,0.247816133915248,0.10967342087584,0.0883651938392833,0.376250806874051,0.188678346795023,0.0550511601557471
0.0281326788226284,0.161819869991805,0.248383565131834,0.109739411356566,0.0824404599293695,0.372271300810004,0.185228726678061,0.0541424693469122
0.0277581244348024,0.162772940849134,0.249140375139844,0.109922024947384,0.0765563936920927,0.367689437364954,0.182009728590257,0.0532791870011801
0.0273528937608671,0.163483571862671,0.250116971039057,0.110231433747493,0.0707742726492738,0.362480238604125,0.179101861232493,0.0524758328428605
0.0269234442556889,0.16397438794483,0.251336095471736,0.110674878874981,0.0651539733682494,0.356630506934821,0.176582183454768,0.0517466441194484
0.0264765635903988,0.164270551732425,0.252812367937788,0.11125645218054,0.0597534025299682,0.35014020637001,0.174523064782256,0.0511054480672978
0.0260193145829202,0.164399492881073,0.254552008503373,0.111976954221386,0.05462794939454,0.343023504160041,0.17299104327944,0.0505655351515895
0.0255589776021123,0.164390591195608,0.256552729939974,0.112833835876039,0.0498299627779479,0.335309424351836,0.172045785073405,0.0501395276970022
0.0251029893709779,0.16427481644582,0.25880378771357,0.113821228369248,0.0454082563355789,0.327042070454524,0.17173914690753,0.0498392398610863
0.0246588762956402,0.164084325948808,0.261286182531694,0.114930062192665,0.0414076449649041,0.318280397905304,0.172114343903443,0.0496755271291549
0.0242341803678656,0.163852016053278,0.263973012240369,0.116148269884012,0.037868513478915,0.309097549657699,0.173205228321942,0.0496581256778269
0.02383637650556,0.163611021207335,0.266829965153231,0.117461062358319,0.0348264181897705,0.299579796723563,0.175035688773069,0.049795482880463
0.0234727814218054,0.163394157763297,0.269815939198199,0.118851265270368,0.0323117229297166,0.289825139127358,0.177619179392043,0.0500945795454047
0.0231504550473396,0.163233317544275,0.272883769104194,0.12029970142904,0.0303492723081617,0.279941620401895,0.180958384203691,0.0505607439617409
0.0228760956258884,0.163158824970719,0.275981048659706,0.121785607046806,0.0289581055689373,0.270045403224472,0.185045018366623,0.0511974593788925
0.0226559291570572,0.163198777600023,0.279051041472501,0.123287071935248,0.0281512138924773,0.260258655754349,0.189859769067615,0.0520061698007463
0.0224955939708467,0.163378390604385,0.282033675107694,0.12478149430096,0.0279353433967578,0.250707305139113,0.195372381953925,0.0529860922863475
0.022400022272696,0.163719361313745,0.284866607104248,0.126246038190248,0.0283108465572029,0.241518720468981,0.201541899303459,0.0541340456487464
0.0223733219579361,0.164239265420263,0.287486342979574,0.127658078385188,0.029271586028026,0.2328193888644,0.208317051477156,0.055444304922187
0.0224186631028805,0.164950996074888,0.289829383999257,0.128995617750984,0.0308048959410488,0.224732645036383,0.215636797672201,0.0569084896664042
0.0225381737579359,0.165862260481546,0.291833386529266,0.130237666116807,0.0328916058921605,0.217376507719079,0.223431010459929,0.0585154938061068
0.0227328490996297,0.166975153247172,0.293438320861728,0.13136457545261,0.0355061320985038,0.2108616668181,0.231621300027521,0.0602514650356236
0.0230024774139303,0.168285829152561,0.294587620745367,0.132358330552785,0.038616639580583,0.205289653801842,0.240121974299812,0.0620998417529491
0.0233455861873684,0.169784298225674,0.295229311617437,0.133202795263061,0.0421852790233378,0.200751217476872,0.24884112665873,0.0640414542258574
0.0237594115252059,0.171454362051902,0.295317095832005,0.133883911138314,0.046168501647511,0.197324920474933,0.257681834869876,0.0660546942149062
0.0242398938887246,0.173273703155863,0.294811364477387,0.13438984200804,0.0505174544328038,0.195075967722213,0.266543449237945,0.0681157545096505
0.0247817026113876,0.175214132443107,0.293680104870523,0.134711058396991,0.0551784562556564,0.194055273747079,0.275322948157347,0.0701989375479496
0.0253782908127744,0.177241995362088,0.291899680321691,0.134840360206834,0.0600935532492265,0.194298768611168,0.28391634304061,0.0722770303233915
0.0260219812148543,0.179318734995389,0.289455470013192,0.134772842108703,0.065201149484575,0.19582693474029,0.292220118211852,0.0743217405881852
0.0267040820810631,0.181401607842119,0.286342366514543,0.134505810588881,0.0704367073039757,0.198644563236034,0.300132690894505,0.0763041864511617
0.0274150313165776,0.183444543591007,0.282565131676317,0.134038661855683,0.0757335102554981,0.202740718340461,0.307555869428999,0.0781954281683843
0.0281445659135753,0.185399133005906,0.278138606033487,0.1333727263945,0.0810234799866673,0.208088899087123,0.314396276639006,0.0799670284654023
0.0288819133865255,0.187215720796837,0.27308775693835,0.132511083666984,0.0862380359932519,0.214647384028681,0.320566697542511,0.0815916268513099
0.0296160014315246,0.188844576102593,0.267447545862565,0.131458352124509,0.091308984421608,0.222359739153519,0.325987311450703,0.0830435137823339
0.0303356814741339,0.190237111404116,0.261262599464844,0.130220463590692,0.0961694208693109,0.231155467629623,0.330586777314785,0.0842991912057401
0.0310299607919823,0.191347118308223,0.254586679890164,0.128804434055361,0.100754632854723,0.240950786517377,0.334303153845625,0.0853379055626758
0.0316882366918332,0.192131983287892,0.247481963233006,0.127218142544439,0.105002989499523,0.251649527034263,0.337084645746063,0.0861421371374701
0.0323005254809001,0.192553841053344,0.24001814646853,0.125470125750551,0.108856807520582,0.263144165377241,0.338890167670911,0.0866980277662495
0.0328576791313934,0.192580623798419,0.232271407948839,0.123569391756003,0.112263182268989,0.275316994603301,0.339689710076289,0.0869957300958923
0.0333515834737034,0.192186972139861,0.224323242799901,0.121525254516293,0.115174769642983,0.288041443120033,0.339464489361877,0.0870296659837155
0.0337753329717265,0.191354983936204,0.216259187652609,0.119347191498016,0.117550501317491,0.301183538921979,0.338206876088191,0.0867986874697856
0.0341233778930862,0.190074784062892,0.208167448203799,0.117044728093668,0.119356214989014,0.314603517323539,0.335920114292694,0.0863061385162723
0.0343916394363479,0.188344898004765,0.200137449946779,0.114627352145848,0.120565183960515,0.328157571186349,0.332617862275715,0.0855598171723025
0.0345775878136661,0.186172410911233,0.192258342844009,0.112104458881139,0.121158535250112,0.341699740842622,0.328323591976581,0.0845718364829016
0.0346802789698774,0.183572900841079,0.184617499584033,0.109485322264853,0.121125550582829,0.355083932737825,0.32306987808114,0.0833583823866355
0.0347003479248294,0.180570149787516,0.177299050459662,0.106779086612334,0.120463847819657,0.368166042312722,0.316897598939513,0.0819393704474483
0.034639959756624,0.177195651420514,0.170382494474886,0.103994773139687,0.119179439769678,0.380806142565949,0.309855069590713,0.0803380092303501
0.0345027216846048,0.173487942937785,0.16394141840505,0.101141298406855,0.117286664291707,0.392870690345619,0.301997131805831,0.078580284009812
0.0342935605331728,0.169491787821687,0.158042347879915,0.0982275031580934,0.114807979107748,0.404234699656302,0.293384231576125,0.0766943781813473
0.0340185693789035,0.165257233415169,0.152743749139676,0.0952621891828156,0.111773619324618,0.414783831716787,0.284081516891521,0.0747100500786468
0.0336848271024533,0.160838568982256,0.148095196242434,0.0922541585959363,0.10822112353651,0.424416347829728,0.274157986382848,0.0726579806675505
0.0333001956625872,0.156293215056947,0.144136715488569,0.0892122473472972,0.104194742127505,0.433044860185523,0.263685712357532,0.0705691056314637
0.0328731015525153,0.15168057918921,0.140898316352202,0.0861453453550215,0.0997447456075363,0.440597808269579,0.252739150392141,0.0684739453605693
0.0324123092264547,0.147060913777322,0.138399715900818,0.0830623990000178,0.0949266501825469,0.447020596691272,0.241394534093209,0.0664019477041677
0.0319266947107274,0.142494207709211,0.136650260849841,0.079972395859017,0.089800375535551,0.452276352983364,0.229729342923138,0.0643808598433597
0.0314250269533638,0.138039136603151,0.135649047153614,0.0768843341781862,0.0844293502138394,0.456346291840651,0.217821826614961,0.0624361463102417
0.0309157630742504,0.13375208976262,0.135385230980165,0.0738071792168471,0.0788795828610668,0.459229693450997,0.205750571312811,0.0605904694462733
0.0304068622909179,0.129686287218197,0.135838518435608,0.0707498067601544,0.0732187202971246,0.460943508217008,0.193594097688665,0.0588632463686158
0.0299056222541825,0.125890997171182,0.136979816785398,0.0677209342570491,0.0675151142020093,0.461521591230969,0.181430486472957,0.0572702933610727
0.0294185407103331,0.122410862182002,0.138772027740572,0.0647290427934625,0.061836916321824,0.461013567037091,0.169337028659887,0.0558235654805033
0.0289512046626819,0.119285340873563,0.141170962619675,0.0617822964887377,0.0562512186359163,0.459483340518518,0.157389894101296,0.0545309963695046
0.0285082084785257,0.116548269770863,0.144126358084058,0.0588884677892647,0.0508232514010358,0.457007297158958,0.14566380598446,0.0533964404453661
0.0280931016788478,0.114227546139847,0.147582967855094,0.0560548764917155,0.0456156488289765,0.453672263077546,0.134231706405971,0.0524197165530214
0.0277083664531759,0.112344927514685,0.151481700747055,0.0532883480863478,0.04068778898964,0.449573310885251,0.123164402446016,0.0515967489944312
0.0273554241839253,0.110915939428643,0.155760772296178,0.0505951950656346,0.0360952115223783,0.444811495541872,0.112530190248787,0.0509197987818196
0.0270346692825831,0.10994988157563,0.16035683890134,0.0479812234802125,0.0318891142179746,0.439491589126474,0.10239446248818,0.0503777750599848
0.026745527396303,0.109449923853828,0.165206088796753,0.0454517653604481,0.0281159273224334,0.433719868481134,0.0928193085421855,0.0499566143935986
0.0264865339612215,0.109413286052671,0.170245270245136,0.04301173529173,0.0248169623450357,0.427602002890462,0.0838631155874184,0.0496397146321071
0.0262554286495785,0.109831496652174,0.175412640027724,0.0406657070047934,0.0220281306045305,0.421241087801952,0.0755801761673199,0.0494084104160749
0.0260492615000016,0.110690725742121,0.180648813004265,0.0384180036791728,0.0197797261023178,0.414735870231994,0.0680203076448084,0.049242478534217
0.0258645071046594,0.111972183900863,0.185897491682078,0.036272793664423,0.0180962675049742,0.408179208320467,0.0612284908115262,0.0491206622894246
0.0256971836594047,0.11365257515325,0.191106059810207,0.0342341822258684,0.016996394747924,0.401656800140855,0.0552445362975058,0.0490212037857311
0.0255429734919428,0.115704590975901,0.196226035379416,0.0323062905556221,0.0164928166660645,0.395246206359773,0.050102786750434,0.0489223717656761
0.0253973410089711,0.118097434365593,0.201213391106899,0.0304933153643911,0.0165923067493107,0.389016179808825,0.045831860167289,0.0488029721317963
0.025255643831637,0.120797367025288,0.206028759004741,0.0287995647008913,0.0172957443200432,0.383026303767752,0.0424544365635941,0.0486428297238836
0.0251132337757133,0.123768276923949,0.210637536314892,0.0272294668847828,0.0185981980684551,0.377326928677138,0.0399870874889186,0.0484232327440428
0.0249655458691919,0.126972265799029,0.21500990451342,0.0257875494719095,0.0204890483525448,0.371959381611395,0.0384401466635774,0.0481273342341194
0.024808174977561,0.13037025497753,0.219120768049569,0.024478385808814,0.0229521444911994,0.36695640610991,0.0378176205345756,0.0477405070301604
0.0246369400953416,0.133922603894117,0.222949618653195,0.0233065090777116,0.0259659935646146,0.362342779964557,0.0381171390609816,0.0472506488397351
0.0244479359720049,0.137589732527582,0.226480333026123,0.0222762969160214,0.0295039778945115,0.358136059295122,0.0393299483089061,0.0466484328772033
0.0242375715415557,0.141332738896236,0.22970091456002,0.0213918323345794,0.0335345993399254,0.354347406057141,0.0414409465118715,0.0459274987198082
0.0240025953505483,0.145114004993824,0.232603192375554,0.020656747846572,0.0380217497491003,0.350982467949842,0.044428764226627,0.0450845790052898
0.0237401094856357,0.148897787469154,0.235182492951459,0.0200740595684161,0.0429250081774018,0.348042289351235,0.0482658883687591,0.044119560023782
0.0234475746842959,0.152650791406493,0.237437300136533,0.0196459976789957,0.0481999664186888,0.345524235009758,0.0529188300567661,0.043035477272139
0.0231228097822551,0.156342725517025,0.23936891693124,0.0193738396770422,0.0537985844309212,0.343422902040792,0.0583483369323175,0.0418384495662382
0.0227639882242223,0.15994683404432,0.240981135609572,0.019257753005521,0.0596695761559807,0.341730983377975,0.0645096511592646,0.0405375563475442
0.022369633569406,0.163440394774377,0.242279913420151,0.0192966533734823,0.0657588249728662,0.340440038027252,0.0713528139945486,0.0391446622137663
0.0219386154783204,0.166805166148302,0.243273045436278,0.0194880844232729,0.0720098277131863,0.33954112773639,0.0788230164906394,0.0376741920067676
0.0214701476421783,0.170027763014957,0.243969827733375,0.0198281235082739,0.0783641668752178,0.339025294772941,0.0868609938863238,0.0361428605636406
0.0209637892200924,0.173099941349701,0.244380711675155,0.0203113175534616,0.0847620118496071,0.33888387564481,0.0954034592747127,0.0345693632153633
0.0204194513467253,0.176018776769982,0.244516959812194,0.0209306523256996,0.091142650962372,0.339108663409892,0.104383570929756,0.032974035141844
0.0198374100666297,0.178786728178372,0.244390320710889,0.0216775577394033,0.0974450563400905,0.339691939817322,0.113731427656286,0.0313784886685695
0.0192183266463733,0.181411583561104,0.244012739581942,0.0225419509324453,0.103608482489477,0.340626394621393,0.123374587539859,0.0298052371308389
0.0185632756267556,0.183906286538814,0.243396114809998,0.0235123179613934,0.109573096683391,0.341904939299874,0.133238606514396,0.0282773129158467
0.017873780180987,0.186288638736306,0.242552105392794,0.024575834151397,0.115280634970815,0.343520418557529,0.143247592500315,0.0268178867488619
0.0171518534449344,0.188580869936277,0.241491994985258,0.0257185221682789,0.120675073276622,0.345465229453929,0.153324767705915,0.025449894987182
0.0164000438713364,0.19080907172444,0.24022662034156,0.0269254457274816,0.125703300094542,0.347730870644718,0.163393029073642,0.0241956809703248
0.0156214826129109,0.193002500664481,0.238766369358069,0.0281809356492066,0.130315776191698,0.350307457248934,0.173375498754125,0.0230766553923777
0.0148199313843351,0.195192769334224,0.237121246295705,0.0294688437269585,0.134467167460669,0.353183245264578,0.183196063058107,0.0221129798079706
0.0139998298830053,0.197412952126821,0.23530099527882,0.0307728187916867,0.138116939074654,0.356344210166532,0.19277990680153,0.0213232768052825
0.0131663422613388,0.199696633565793,0.233315269083419,0.032076598507775,0.14122990129601,0.359773716455491,0.202054056606861,0.0207243696640774
0.012325402052813,0.202076922413471,0.231173824180212,0.0333643094897224,0.14377669783821,0.363452299928798,0.21094794832831,0.0203310533094015
0.0114837545447735,0.20458545301257,0.22888671703522,0.0346207672543802,0.145734225017315,0.367357567280446,0.219394029176744,0.0201558973571406
0.0106489953820399,0.207251398885277,0.226464478199486,0.0358317670908361,0.147085965941699,0.371464204398679,0.227328397278071,0.0202090812029563
0.00982960427659367,0.210100529192144,0.223918249720327,0.0369843576090736,0.147822223682309,0.375744078007944,0.234691474956543,0.0204982602813644
0.00903497281357584,0.213154341825625,0.221259880754031,0.0380670900752833,0.147940242518341,0.380166415038779,0.241428708099929,0.0210284617284252
0.00827542525803257,0.216429304610287,0.218501978690665,0.039070237683643,0.147444214513133,0.384698048866043,0.247491281412942,0.0218020068961383
0.00756223095279967,0.219936228697791,0.215657908820928,0.0399859788216256,0.146345175642022,0.389303728704868,0.25283683754568,0.0228184578533011
0.0069076064949863,0.223679790696159,0.212741733861291,0.0408085377341768,0.144660797619911,0.393946494749106,0.257430187226336,0.0240745854626948
0.00632470557364059,0.227658215984784,0.209768090493823,0.0415342765106292,0.142415078824609,0.398588123882709,0.261243998024568,0.0255643577989292
0.00582759424160689,0.231863133852589,0.206752010004861,0.0421617345618416,0.139637936390588,0.403189646132909,0.264259450729732,0.0272789490534068
0.00543120941203144,0.236279612574586,0.203708699114821,0.0426916149167869,0.136364705354645,0.407711919229974,0.266466852515779,0.0292067698702708
0.00515129833795362,0.240886376637634,0.200653301782549,0.0431267195209952,0.132635557345621,0.4121162330734,0.267866192037237,0.0313335199071155
0.0050043367275935,0.245656198832305,0.197600661621477,0.0434718371150788,0.128494856559073,0.416364907847009,0.2684676126309,0.0336422631915204
0.00500742321265415,0.250556450987396,0.194565097939787,0.0437335869046816,0.123990471463367,0.420421853070836,0.268291771748131,0.0361135275204728
0.00517814819442833,0.255549792585643,0.191560199826608,0.0439202206281128,0.119173057243257,0.424253067345567,0.267370054056365,0.0387254304939553
0.00553443538719167,0.260594976061984,0.18859863715179,0.0440413865283889,0.114095321083175,0.42782707464272,0.265744612472851,0.0414538360015208
0.00609435451624613,0.265647748758208,0.185691986639609,0.0441078610532105,0.108811282849489,0.431115306828031,0.263468222345506,0.044272545445585
0.00687590395331071,0.270661831085694,0.182850574342777,0.0441312567494395,0.103375545936535,0.434092448500635,0.260603944981425,0.0471535274261012
0.00789676288397271,0.275589945393246,0.180083340845472,0.044123716646399,0.0978425943014195,0.436736755602179,0.257224603777939,0.0500671881740106
0.00917401363594264,0.280384860530381,0.177397739636274,0.0440976056506642,0.0922661302218233,0.439030344246706,0.253412076010903,0.0529826830977702
0.0107238355294516,0.285000409712403,0.174799679398917,0.0440652082866022,0.0866984633690899,0.440959429859623,0.24925639631308,0.0558682677982198
0.0125611720181201,0.289392440244553,0.172293516399759,0.0440384409311754,0.0811899579630553,0.442514489055666,0.24485466229961,0.0586916849993036
0.014699373782764,0.293519662852815,0.16988209774394,0.0440285864366603,0.0757885426787213,0.443690319498942,0.240309736628017,0.0614205819049588
0.0171498222777581,0.297344381599117,0.167566855156483,0.0440460592759042,0.0705392870113687,0.444485983482731,0.235728752507449,0.0640229501815575
0.0199215405303587,0.300833096335788,0.165347951844843,0.0441002092672677,0.0654840469930643,0.444904635444614,0.231221445959031,0.0664675782000751
0.0230207998635161,0.303956972070688,0.16322448844208,0.0441991710013472,0.0606611819199261,0.44495324781751,0.226898351547713,0.0687245034560495
0.0264507319785014,0.306692163448807,0.161194774683345,0.0443497642247715,0.0561053418758162,0.44464225832035,0.222868903469883,0.070765453186642
0.0302109559132661,0.309019978842652,0.159256669646343,0.0445574479723816,0.0518473232426621,0.443985159617239,0.219239480039223,0.0725642631020358
0.0342972299131354,0.310926875965386,0.157407986152713,0.0448263286407814,0.0479139863343995,0.44299803913162,0.216111424420593,0.0740972669404286
0.0387011393568917,0.312404296814902,0.155646947535314,0.0451592197649781,0.0443282268433929,0.441699064682636,0.213579075789857,0.075343651692045
0.043409832831129,0.313448366666792,0.153972679413228,0.0455577489731662,0.0411089919275073,0.440107912020757,0.211727852329891,0.0762857733239003
0.0484058184737606,0.314059492410482,0.152385715624193,0.0460225053078191,0.0382713324978226,0.438245142219944,0.210632435922722,0.0769094261821317
0.0536668316091969,0.314241895050692,0.150888496239584,0.0465532182129578,0.0358264848824786,0.436131553268957,0.210355113509221,0.0772040589356941
0.0591657831711865,0.314003101642351,0.149485836628487,0.047148958671307,0.0337819764485662,0.433787543810726,0.210944328911691,0.0771629324692095
0.0648707971116017,0.313353413113933,0.148185348790101,0.0478083532738209,0.0321417499779152,0.431232531815356,0.212433491630026,0.0767832193320795
0.070745343742114,0.312305362811477,0.146997797258619,0.0485298027509234,0.0309063009460187,0.428484463529418,0.214840079863596,0.0760660481182037
0.0767484742587501,0.310873184426153,0.145937369523778,0.0493116966610769,0.0300728220923901,0.425559431455158,0.218165066965255,0.0750164976679421
0.0828351591699116,0.309072313207128,0.14502183707108,0.0501526149327828,0.0296353514658463,0.42247140527766,0.222392692527403,0.0736435446342904
0.0889567299751584,0.306918947554392,0.144272583619815,0.051051505903277,0.0295849225599496,0.419232072895798,0.227490589347804,0.0719599653825335
0.0950614198463905,0.30442969690887,0.143714483956725,0.0520078311490625,0.0299097169892491,0.41585078783305,0.233410265556403,0.0699821918587455
0.101094995961561,0.301621335047399,0.143375627345619,0.0530216699675308,0.030595220608659,0.412334620561178,0.24008792857586,0.067730121531124
0.107001473805963,0.298510665530169,0.143286889730476,0.0540937797569975,0.031624383382798,0.40868851222652,0.24744562612931,0.0652268831096584
0.112723902163018,0.295114491606342,0.143481364846887,0.0552256111305982,0.0329777829807052,0.404915528454997,0.255392671568008,0.062498561672392
0.118205206368751,0.2914496721807,0.143993664058386,0.0564192771031017,0.0346337926015162,0.401017206761387,0.263827317469036,0.0595738882040759
0.123389076047071,0.287533241236923,0.144859092130875,0.057677475094815,0.0365687545572291,0.396993981306418,0.272638641725081,0.0564838984949778
0.128220880987935,0.283382569840761,0.146112707976216,0.0590033615861033,0.0387571621296294,0.392845653018561,0.281708611699959,0.0532615646745042
0.132648594481231,0.279015555323837,0.147788287037005,0.0604003827169096,0.0411718527687459,0.388571859157196,0.290914291319628,0.0499414010657521
0.136623698891999,0.2744508279558,0.149917212375514,0.0618720683254815,0.0437842155058973,0.384172494278313,0.300130150377779,0.046559046425926
0.140102046507804,0.269707966986496,0.15252733072158,0.063421799779703,0.0465644143526453,0.379648045892017,0.309230424652752,0.0431508267914725
0.143044650805329,0.26480771235939,0.155641814494606,0.0650525621896019,0.0494816277274581,0.374999827352647,0.318091465102766,0.0397533056659249
0.145418388365598,0.259772149520507,0.159278069668722,0.0667666900988859,0.0525043023936341,0.370230108460072,0.326594010828552,0.0364028297070761
0.147196597516794,0.254624841864672,0.16344672407829,0.0685656149654293,0.0556004195270739,0.365342151200324,0.33462532537665,0.0331350777032572
0.14835956335959,0.249390891607359,0.168150725920763,0.0704496233747326,0.0587377703845514,0.360340152317293,0.34208114777685,0.0299846194334295
0.14889487781511,0.244096921430591,0.173384580154788,0.0724176359802908,0.0618842394416975,0.35522909015538,0.348867424778373,0.0269844904719525
0.148797660188862,0.238770980248093,0.179133750379776,0.0744670175192164,0.065008093475736,0.350014483003263,0.354901803422522,0.0241657891238641
0.148070624832419,0.233442381307476,0.185374253956588,0.0765934272368417,0.0680782752665679,0.344702085731743,0.360114867031083,0.0215573016937246
0.146723989903411,0.228141477192985,0.192072476898487,0.0787907165088704,0.0710646996122353,0.339297569177567,0.364451090902708,0.0191851617887981
0.144775232024075,0.222899369648226,0.199185231097701,0.0810508769943177,0.0739385472781901,0.333806232648309,0.367869486462223,0.017072548424493
0.142248701272491,0.217747551434552,0.206660069308213,0.0833640396487526,0.076672551085546,0.328232792330535,0.370343906955155,0.0152394266699186
0.139175115388248,0.212717484017184,0.214435863689477,0.0857185232685943,0.0792412688982292,0.322581276297557,0.371863005033327,0.013702333708725
0.135590950319314,0.207840124162541,0.222443643208989,0.0881009309033149,0.0816213401612529,0.3168550474046,0.372429856120971,0.0124742125319549
0.131537740788682,0.203145418918786,0.230607675403723,0.0904962927842129,0.0837917241772701,0.311056965317635,0.372061282864129,0.0115642948881497
0.127061304620841,0.198661787879432,0.238846769572132,0.0928882541401247,0.0857339178284163,0.305189684948194,0.370786927700962,0.0109780344552207
0.122210908091519,0.194415605965063,0.247075770564674,0.0952593042527539,0.0874321483116801,0.299256073861072,0.368648118452193,0.0107170905122166
0.117038393941276,0.190430696958388,0.255207203115014,0.0975910401899283,0.0888735354748187,0.293259717628958,0.365696560085571,0.0107793618193741
0.111597296633225,0.186727850752767,0.263153016586296,0.0998644575326088,0.0900482198245475,0.287205469091626,0.361992877193584,0.0111590699410103
0.105941969581282,0.183324381763385,0.270826373979537,0.102060261971641,0.0909494547319821,0.281099990701423,0.357605033168444,0.011846890749637
0.100126746091305,0.180233746915161,0.278143430633026,0.104159198475115,0.0915736623920244,0.274952243651194,0.352606661143787,0.0128301322737558
0.0942051506322802,0.177465237218905,0.285025055887083,0.106142396676518,0.0919204515143435,0.268773890234001,0.34707535334979,0.0140929564290426
0.08822917205947,0.175023751966482,0.291398460131669,0.107991730425276,0.0919925927861895,0.262579588821074,0.34109096427168,0.0156166415834231
0.0822486069867654,0.172909663833641,0.297198693538081,0.10969018601929,0.0917959489166694,0.256387165693153,0.334733984193013,0.0173798824186959
0.0763104794824477,0.171118785156424,0.302369978159388,0.111222229967672,0.0913393592731771,0.250217644038024,0.328084031175428,0.0193591231725951
0.0704585420603672,0.169642446306972,0.306866829448848,0.112574165307821,0.0906344823553753,0.244095109412438,0.321218496109191,0.0215289199884227
0.0647328620176018,0.16846769362926,0.310654927509663,0.113734465464669,0.0896956001881199,0.238046401499054,0.314211365911855,0.0238623275871162
0.0591694960300104,0.167577607281464,0.313711713334676,0.11469407574228,0.088539386782304,0.232100640144691,0.307132245524967,0.0263313047488552
0.0538002541010303,0.16695173195261,0.316026704242417,0.115446674266834,0.0871846412296679,0.22628861067004,0.300045594812598,0.028907132461828
0.048652551254019,0.16656660743526,0.317601537078237,0.115988885981837,0.0856519873310775,0.220642041623325,0.293010186993912,0.0315608383138642
0.0437493423988686,0.166396380778944,0.318449750636164,0.116320444186073,0.0839635449935601,0.215192805817126,0.286078782484603,0.034263620499662
0.0391091337938181,0.166413477145126,0.31859631211778,0.116444292811915,0.0821425816824139,0.209972070863919,0.279298002254766,0.0369872642095405
0.0347460638241415,0.166589303670422,0.318076889359221,0.116366619187638,0.0802131529879923,0.205009426743594,0.272708378178037,0.0397045423776715
0.0306700459295399,0.166894960805549,0.316936878913873,0.116096804926077,0.0781997393944716,0.200332023690638,0.266344549404822,0.0423895928071317
0.0268869666833319,0.167301938506849,0.315230216101599,0.115647285256178,0.0761268838015116,0.195963758242239,0.260235564355983,0.045018264865771
0.0233989315949135,0.167782777914919,0.313018009123592,0.115033314177862,0.0740188336723898,0.191924544239711,0.254405245723276,0.0475684305127227
0.0202045501873329,0.168311679140192,0.31036704802403,0.11427264135658,0.0718991927882094,0.188229698896525,0.248872583827276,0.0500202551932829
0.0172992513220057,0.168865032208259,0.307348236575243,0.113385112865326,0.0697905891668461,0.184889466659766,0.243652136624083,0.0523564235307221
0.0146756202767547,0.169421847465799,0.304034985066225,0.11239220903419,0.0677143664541856,0.181908698350425,0.23875442462827,0.0545623140008613
0.0123237503022242,0.169964068414585,0.300501594997757,0.111316530902523,0.0656903051025038,0.179286698206186,0.234186310030418,0.0566261176484711
0.0102316024780218,0.170476761729756,0.296821667015465,0.110181247614096,0.0637363771556787,0.177017245298602,0.229951343876637,0.0585388984311937
0.00838536808945523,0.170948191065145,0.293066567725359,0.109009521639772,0.061868536336659,0.175088788722311,0.22605006400174,0.060294595803887
0.00676982766506854,0.171369788496722,0.289303995022968,0.107823933729791,0.0601005447347987,0.173484809387779,0.222480234079262,0.06188997221
0.00536870109419471,0.171736037592387,0.285596682376024,0.106645931576329,0.0584438382774795,0.172184336037611,0.21923702688932,0.0633245081330506
0.0041649841147388,0.172044277307886,0.282001278983224,0.10549532409687,0.0569074341807611,0.171162598461221,0.216313167257895,0.0646002461173384
0.00314126746170188,0.172294432647857,0.278567434771971,0.104389839304028,0.0554978835829594,0.170391794936892,0.213699057791192,0.0657215852934525
0.00228003561132446,0.172488679562255,0.27533710716488,0.103344760471947,0.0542192710406971,0.169841943690611,0.211382911130637,0.0666950303737807
0.00156394227812188,0.172631056414353,0.272344093001673,0.102372652087853,0.053073260386164,0.16948178312338,0.209350906140911,0.0675289024819141
0.000976060045129427,0.172727039984363,0.269613779279194,0.101483182715117,0.0520591851647716,0.169279684926394,0.20758737611961,0.0682330214739416
0.00050010192730125,0.172783108027287,0.26716310341076,0.10068304743558,0.051174181792902,0.169204546853533,0.206075029796961,0.0688183692205571
0.000120613037225081,0.172806311031538,0.26500071621603,0.0999759892663462,0.0504133640187526,0.169226635838282,0.204795201961501,0.069296741923465
-0.000176869220620195,0.1728038719967,0.263127345100728,0.0993629161207534,0.0497700374625962,0.169318355938311,0.203728129232991,0.069680399607705
-0.000405687558781731,0.172782826314711,0.26153635645586,0.0988421061713171,0.0492359523732846,0.169454918551541,0.20285324708896,0.0699817226138679
-0.000577970235435202,0.172749708723823,0.260214511931181,0.0984094902581568,0.0488015910322895,0.169614893593068,0.20214950610246,0.0702128863841715
-0.0007045691702303,0.17271029327405,0.259142902951821,0.0980589973690156,0.04845648388056,0.169780618330726,0.201595707381324,0.0703855654381454
-0.00079502987968377,0.172669393983144,0.258298036371729,0.0977829489681308,0.048189546351635,0.169938436137515,0.201170857543193,0.0705106752463287
-0.000857592057655115,0.172630735524752,0.257653036100844,0.0975724889455421,0.0479894269937504,0.170078737339984,0.200854540026169,0.0705981587028729
-0.00089921929626232,0.172596902000269,0.257178921181274,0.0974180363852018,0.0478448566025059,0.170195784915718,0.200627292285604,0.0706568230360318
-0.000925655927679522,0.172569366382995,0.256845918390377,0.0973097466725219,0.047744987490541,0.170287328434881,0.200470972271035,0.0706942323594624
-0.000941508320585662,0.172548596079793,0.256624764816899,0.0972379629903883,0.0476797114056751,0.170354033950372,0.200369096285824,0.0707166594930711
-0.000950347281895712,0.172534224697127,0.256487950612484,0.097193637566054,0.047639943665979,0.170398776005479,0.200307132546658,0.0707290977718837
-0.000954827585493312,0.172525276427944,0.256410842663484,0.0971687014046287,0.0476178595088201,0.170425844875829,0.200272736805445,0.0707353300586908
-0.000956820169970059,0.172520425382884,0.256372617617556,0.0971563614081724,0.0476070665093867,0.170440125751234,0.200255914704779,0.0707380489705997
-0.000957552250452824,0.172518265964533,0.256356921391134,0.0971513028233558,0.0476026949763678,0.170446318736564,0.200249088931364,0.0707390193968404
-0.000957750334504381,0.172517561904171,0.256352163229074,0.0971497718262788,0.0476013870566898,0.17044828747869,0.200247041025273,0.0707392713623009
