APL,FCR,FDS,FDP,ED,EI,ECU,ECR
0.00322393224066376,0.00134850948529813,0.018119939709691,0.0441943789700572,-0.00365348669666078,0.000204709220974957,0.00061045830685947,0.0169518725458376
0.00378673449506349,0.00254344429207956,0.0175824244499908,0.0530606039573599,-0.00261197212996439,0.000227520657308717,0.000779213225308995,0.0244338398347478
0.00430702974098929,0.00375089757768816,0.0170529381215341,0.0614155778119654,-0.00148293913850091,0.000249967427930842,0.000940305539346672,0.0319175088469153
0.00478080840378038,0.00496583483487586,0.0165382496111371,0.0691940696232904,-0.000265743556281953,0.000271896268709351,0.0010925871708291,0.039376837009585
0.0052047983034625,0.00618339698983581,0.0160453822873668,0.0763392135400845,0.0010396268854197,0.000293160394323562,0.00123504107017058,0.0467887508093899
0.00557653174876281,0.00739895841459368,0.0155815256689639,0.0828034764552624,0.00243249239021039,0.000313621486823848,0.0013667966403201,0.0541334107505738
0.00589439149540112,0.00860817062224388,0.015153936088868,0.0885493690546821,0.00391141921019237,0.000333151441784719,0.00148714068736655,0.0613943191601791
0.00615763462300357,0.00980699100571355,0.0147698265573031,0.0935498880911529,0.00547415826734196,0.000351633880013225,0.00159552374835555,0.0685582685963009
0.0063663947874015,0.0109916972425067,0.0144362471267577,0.0977886958363298,0.00711758722118181,0.000368965455653013,0.00169156198294344,0.075615140900481
0.00652166424461278,0.0121588888067987,0.0141599582416655,0.101260054524297,0.0088376592177131,0.000385056996398888,0.00177503502685829,0.0825575753171408
0.00662525739712246,0.0133054772491212,0.0139473004219198,0.103968537679311,0.0106293615239439,0.000399834501560729,0.00184588026965506,0.0893805272600701
0.00667975760838532,0.0144286667942827,0.0138040638881115,0.105928539311313,0.0124866871204095,0.000413240006099753,0.00190418401596006,0.0960807387370146
0.00668844910182094,0.015525926935015,0.0137353614327032,0.107163601776378,0.0144026221599795,0.000425232300964375,0.00195017001868072,0.102656141261661
0.00665523604229372,0.016594959247572,0.0137455074705607,0.107705585874317,0.016369151941603,0.000435787487499281,0.00198418593730713,0.109105214389458
0.00658455125325035,0.0176336614133478,0.0138379060951244,0.1075937110917,0.018377287664606,0.000444899338493501,0.00200668832712806,0.115426326819618
0.00648125730424547,0.0186400920696808,0.0140149509878724,0.106873497962761,0.0204171157566589,0.000452579438262342,0.00201822677202991,0.121617090490946
0.00635054283093759,0.0196124403229782,0.0142779399775123,0.105595646963987,0.0224778710619602,0.000458857072148351,0.002019427727556,0.127673759586682
0.00619781690467328,0.0205490033887268,0.0146270068607703,0.103814888363093,0.0245480346579799,0.000463778825931126,0.0020109785572189,0.133590704742169
0.00602860407210869,0.0214481750975706,0.0150610728345415,0.101588834743791,0.0266154564871747,0.000467407846118612,0.00199361214900934,0.139359988115463
0.00584844237942473,0.0223084472889215,0.0155778196193749,0.098976863165089,0.0286675022156296,0.000469822720103627,0.00196809241280742,0.144971059118925
0.00566278634808038,0.0231284253755089,0.0161736860616909,0.0960390488397832,0.0306912226701765,0.000471115963660838,0.00193520089278373,0.15041058506671
0.00547691653799868,0.0239068584142334,0.0168438895705997,0.0928351680787265,0.0326735430643494,0.000471392140373371,0.00189572467647211,0.155662425586187
0.00529585701948631,0.0246426829524173,0.0175824731023128,0.0894237849274358,0.0346014683861579,0.000470765665777579,0.0018504457272509,0.160707753873697
0.00512430175329674,0.0253350788705036,0.0183823777230112,0.0858614329809331,0.0364623009259417,0.000469358355637383,0.00180013169229918,0.165525321895186
0.00496655054908547,0.0259835343423288,0.0192355402329971,0.0822019010846598,0.0382438658423579,0.000467296772096385,0.00174552815103777,0.170091861115283
0.00482645495314169,0.0265879160937124,0.0201330147898919,0.078495628974595,0.0399347406006769,0.000464709427248697,0.00168735220621107,0.174382605926595
0.00470737411825729,0.0271485407891324,0.0210651167395411,0.0747892163428301,0.0415244836534557,0.000461723924387646,0.00162628730153682,0.178371923610498
0.00461214047134004,0.02766624365125,0.0220215860982517,0.0711250461679047,0.0430038565667962,0.000458464137696294,0.00156297916728158,0.18203403127892
0.00454303486293412,0.028142440911902,0.0229917675949594,0.0675410201097474,0.0443650323915409,0.000455047536724155,0.00149803282707151,0.185343775020309
0.00450177085966423,0.0285791827875843,0.0239648037688694,0.0640704001505644,0.0456017825190097,0.000451582750393006,0.00143201062140355,0.18827743972076
0.00448948787981405,0.0289791931027716,0.0249298369975951,0.0607417471369585,0.0467096349893332,0.000448167448707722,0.0013654311940612,0.190813554148079
0.00450675289072569,0.0293458912584415,0.0258762154695401,0.0575789446749753,0.0476859988687148,0.000444886605610349,0.00129876934125314,0.192933658059503
0.00455357030779147,0.0296833928895005,0.0267936975322943,0.0546012963804787,0.0485302510505272,0.000441811188609353,0.00123245657051277,0.194623004887529
0.00462939959482127,0.0299964870749606,0.0276726489485989,0.0518236853438747,0.0492437826139574,0.000438997300192596,0.00116688219748223,0.195871180592254
0.00473318000524482,0.0302905894241926,0.0285042282433466,0.0492567858704405,0.0498300011929154,0.000436485777454054,0.00110239482894875,0.196672621490041
0.00486336196082469,0.0305716708277246,0.0292805560543004,0.0469073179088642,0.0502942850306129,0.000434302237845321,0.00103930412323098,0.19702701052681
0.0050179446518992,0.030846161314834,0.0299948645856724,0.0447783335545807,0.0506438854664517,0.000432457540164138,0.000977882764227582,0.196939530136729
0.00519451945189368,0.0311208287942614,0.0306416227305343,0.042869524109667,0.0508877776029364,0.000430948618576104,0.000918368614554203,0.196420956734641
0.00539031861596183,0.031402634080503,0.0312166321518525,0.0411775372880306,0.0510364625103907,0.000429759646147222,0.000860967012268239,0.195487594741943
0.00560226855606011,0.0316985656304366,0.0317170905892964,0.0396962970951023,0.0511017268912502,0.000428863485740425,0.000805853147571757,0.194161060678394
0.00582704687905276,0.0320154585650198,0.0321416206499428,0.0384173222250152,0.0510963665156118,0.000428223380527207,0.000753174432111165,0.192467934318718
0.00606114236072904,0.0323598024116286,0.0324902643176025,0.0373300409675821,0.0510338787571528,0.000427794824416004,0.000703052780836903,0.190439292112529
0.00630091705671833,0.0327375418366435,0.0327644442833432,0.0364221008279663,0.0509281295483912,0.000427527548613457,0.000655586759779175,0.188110133824556
0.00654266975983991,0.0331538755769665,0.0329668929342795,0.0356796703385942,0.0507930018237766,0.000427367569943525,0.000610853593729319,0.185518714275046
0.0067826999360883,0.0336130602976249,0.033101549998571,0.0350877307233102,0.0506420350407138,0.000427259259372861,0.000568911058090389,0.182705798464641
0.00701737107399002,0.0341182270604412,0.033173431342724,0.0346303564434913,0.0504880673682428,0.000427147392062526,0.000529799288509544,0.179713866447954
0.00724317217128561,0.0346712178041859,0.0331884734812259,0.0342909853797769,0.0503428926216787,0.00042697913233941,0.000493542529085736,0.176586300230213
0.00745677604221396,0.0352724482057211,0.0331533597374279,0.0340526806966449,0.0502169427874433,0.0004267059054126,0.000460150814057787,0.173366585953565
0.0076550933074683,0.0359208025198338,0.0330753339662017,0.0338983868801728,0.0501190051149532,0.000426285121668853,0.00042962155406075,0.170097560024354
0.00783532123952909,0.0366135654764484,0.032962006965328,0.0338111819478435,0.050055981513889,0.00042568173911361,0.000401940984726095,0.166820720748998
0.00799498691942798,0.0373463954249213,0.0328211604669065,0.0337745265431142,0.0500326973482845,0.000424869659884247,0.000377085433840071,0.163575622005702
0.00813198424438809,0.0381133414127276,0.0326605540494517,0.0337725089214456,0.0500517660300984,0.000423832951468078,0.000355022373150089,0.160399363156288
0.00824460417125218,0.0389069051881423,0.0324877407523904,0.0337900832646615,0.0501135146478608,0.000422566874802793,0.000335711239554497,0.157326187947206
0.00833155744205026,0.0397181475159452,0.0323098969887045,0.0338132976692765,0.0502159741335475,0.000421078703812471,0.000319104031458503,0.154387202935503
0.00839198917505575,0.0405368364694875,0.0321336713328455,0.0338295076209955,0.0503549353597297,0.000419388331363484,0.000305145700737905,0.151610222326714
0.00842548509449329,0.0413516336464087,0.0319650553606753,0.0338275707845611,0.050524070369503,0.000417528666379223,0.000293774362377924,0.149019741210331
0.00843206964294957,0.0421503131699846,0.0318092786525154,0.0337980194206325,0.050715115918793,0.000415545830730625,0.000284921337874555,0.146637033667824
0.00841219657997177,0.0429200080641983,0.0316707294987687,0.0337332074812389,0.0509181147260065,0.000413499161270032,0.000278511050523761,0.144480366750589
0.00836673276507678,0.0436474787122686,0.0315529024915102,0.0336274300690192,0.0511217081227694,0.000411461011890528,0.000274460805142653,0.142565316152457
0.00829693563246472,0.0443193979510991,0.0314583736750318,0.0334770129901905,0.0513134718481268,0.000409516334135164,0.000272680502731634,0.140905164202161
0.00820442461761911,0.0449226463530533,0.0313888029522132,0.0332803693370159,0.051480284396724,0.000407762001422036,0.000273072351265213,0.139511354782221
0.00809114675764776,0.045444609698861,0.0313449620697068,0.0330380191470514,0.0516087153353667,0.000406305842703266,0.000275530632268643,0.138393973288578
0.00795933688170731,0.0458734698070556,0.0313267853367689,0.0327525683780366,0.0516854203165415,0.000405265368619974,0.000279941575999445,0.137562215715023
0.00781147312347527,0.0461984804465035,0.0313334396871029,0.032428644907451,0.0516975303667894,0.00040476620016035,0.000286183394934235,0.137024811955318
0.00765022879202237,0.0464102216998239,0.0313634106732965,0.032072791423788,0.0516330249440364,0.000404940234268442,0.000294126523945164,0.136790374394853
0.00747842180728194,0.0465008280857225,0.0314146011941756,0.0316933170909446,0.0514810802876588,0.000405923590563671,0.000303634109927915,0.136867651575829
0.00729896285298227,0.0464641870304293,0.0314844398195764,0.0313001109354246,0.0512323855283851,0.00040785437825856,0.000314562781703902,0.137265674414153
0.00711480315045476,0.0462961041245997,0.0315699950895966,0.0309044196877576,0.050879418338388,0.000410870320457261,0.000326763715596491,0.137993785311815
0.00692888252483405,0.0459944304147201,0.0316680911797817,0.0305185922082745,0.0504166711610098,0.000415106285125286,0.000340083995503017,0.139061539139916
0.0067440783957772,0.0455591465979486,0.031775419811872,0.0301557930713392,0.049840820422761,0.000420691789992387,0.000354368248954143,0.140478466583215
0.00656315645125254,0.0449924004540056,0.0318886440156333,0.0298296895680041,0.0491508346347375,0.000427748559871519,0.000369460523090458,0.142253699093004
0.00638872394346887,0.0442984966061147,0.0320044910316243,0.0295541185183674,0.0483480214800342,0.000436388211933709,0.000385206348309952,0.144395467990375
0.00622318666738036,0.0434838405618866,0.0321198334321228,0.0293427408515026,0.0474360171061124,0.000446710128019002,0.00040145492703523,0.146910502679116
0.00606871065940929,0.042556840701468,0.0322317585044122,0.0292086922028347,0.0464207216774764,0.00045879955004779,0.000418061382495292,0.149803359489136
0.00592718946045834,0.0415277717690577,0.0323376256478448,0.0291642371436665,0.0453101844497132,0.000472725913341658,0.000434889002690248,0.153075712145372
0.00580021750112143,0.0404086024067576,0.0324351107369679,0.0292204343490167,0.0441144415877425,0.000488541418410841,0.000451811409351648,0.156725632731874
0.0056890699158968,0.0392127892262294,0.0325222363603901,0.0293868204464804,0.0428453116407853,0.000506279833151939,0.000468714571188054,0.160746893834091
0.00559468890907055,0.0379550412781959,0.0325973878012476,0.0296711208937152,0.0415161560682749,0.000525955506978643,0.00048549857917816,0.165128327217446
0.00551767664523899,0.0366510607135443,0.032659316074812,0.0300789963604503,0.0401416142336232,0.000547562563074214,0.000502079115646653,0.169853278209016
0.00545829450555349,0.0353172669454851,0.0327071306742969,0.0306138324170673,0.0387373229709966,0.000571074227308641,0.000518388569248544,0.17489919514069
0.00541646844540109,0.0339705120089339,0.0327402853968301,0.0312765790437002,0.0373196299817173,0.000596442264809906,0.000534376760023017,0.180237388891729
0.00539180012314196,0.0326277939408451,0.0327585604224339,0.0320656451246458,0.0359053087532667,0.000623596524088144,0.000550011234095649,0.185832989591185
0.00538358343520198,0.0313059736966292,0.0327620427247032,0.0329768518953694,0.0345112815726847,0.000652444619789083,0.000565277079947285,0.191645117718286
0.00539082604868212,0.0300215004073433,0.0327511054839654,0.0340034480690435,0.0331543566993503,0.00068287180152331,0.000580176228871386,0.197627276339731
0.00541227540579807,0.0287901497654324,0.0327263861908338,0.0351361878964477,0.031850985403793,0.000714741049979393,0.00059472623239225,0.203727960250859
0.00544644847972367,0.0276267805546066,0.0326887628183879,0.0363634716670643,0.0306170439573845,0.000747893430503814,0.000608958544570956,0.209891466786707
0.0054916644184678,0.0265451143534724,0.0326393277517623,0.0376715462373981,0.029467644590195,0.000782148741704503,0.000622916359510357,0.216058883213471
0.00554607923725545,0.0255575429189401,0.0325793599313006,0.0390447612602209,0.0284169779627181,0.000817306519340224,0.00063665205327768,0.222169218368174
0.00560772188617894,0.0246749666592664,0.0325102965738136,0.0404658750946874,0.0274781880254173,0.000853147474633835,0.000650224267531189,0.228160642528487
0.00567453122892485,0.023906666375329,0.0324337064382911,0.0419164030692547,0.026663278545224,0.000889435443503198,0.000663694675809195,0.233971799168516
0.00574439360385887,0.0232602095423357,0.0323512664612049,0.0433769999013517,0.0259830493006108,0.000925919897656766,0.000677124498969897,0.23954315360505
0.00581518061018008,0.0227413918012549,0.032264742584328,0.0448278675122795,0.0254470590792906,0.000962339038199925,0.000690570871661602,0.24481834343152
0.00588478659003797,0.0223542138041968,0.0321759743306799,0.0462491788513579,0.0250636120179421,0.00099842346517796,0.000704083191065103,0.249745490940739
0.00595116513716434,0.0221008929363759,0.0320868619140773,0.0476215071810331,0.0248397631610402,0.00103390038245402,0.000717699588662196,0.254278430536727
0.00601236397877116,0.0219819086163119,0.0319993544884953,0.048926248619374,0.0247813381895625,0.00106849825885164,0.000731443651619327,0.258377802586431
0.0060665577215392,0.0219960788246698,0.0319154382993497,0.0501460247157791,0.0248929615828252,0.00110195183869194,0.000745321499255325,0.262011973270695
0.0061120781388803,0.022140664390277,0.0318371237692835,0.0512650524524056,0.0251780877132926,0.00113400737454547,0.000759319311556555,0.265157754547219
0.00614744181472241,0.0224114967084563,0.0317664308177873,0.0522694712510162,0.0256390305553259,0.0011644279251029,0.000773401409061775,0.267800912503116
0.00617137496850318,0.0228031241862369,0.0317053719215568,0.0531476194875346,0.0262769893178523,0.00119299852726217,0.000787508984141402,0.269936458752363
0.00618283513252397,0.0233089727822339,0.0316559324949595,0.0538902553855386,0.0270920686759763,0.00121953104586645,0.000801559572729313,0.271568716350455
0.00618102914082067,0.0239215163549112,0.0316200479223855,0.0544907177516703,0.028083292725278,0.00124386853678816,0.00081544733004564,0.27271114901151
0.00616542680809638,0.0246324528382013,0.0315995757729144,0.0549450211778362,0.0292486113877093,0.00126588900619201,0.000829044138026728,0.273385949992406
0.00613576979070254,0.0254328821576873,0.0315962606865926,0.0552518805936171,0.0305848979288895,0.00128550847547379,0.00084220153422941,0.273623402893826
0.00609207536154486,0.0263134811363512,0.0316116892075011,0.0554126629412012,0.0320879373156359,0.0013026832478012,0.000854753419034883,0.273461043345708
0.0060346350735811,0.0272646699374568,0.0316472330244412,0.0554312684167033,0.0337524070061961,0.00131741125090767,0.000866519472298528,0.272942660756114
0.00596400839236378,0.0282767646034032,0.0317039812542898,0.0553139483113051,0.035571853585063,0.00132973235235731,0.000877309188103725,0.272117178752625
0.0058810112880235,0.0293401111603378,0.0317826646197789,0.0550690691264528,0.0375386695794278,0.00133972760950472,0.000886926408558214,0.271037445250864
0.005786699669602,0.0304451983361103,0.0318835755968554,0.0547068325804129,0.0396440744209113,0.00134751749342234,0.000895174201584719,0.269758958525417
0.0056823476556751,0.0315827477493812,0.0320064884407757,0.0542389600571537,0.0418781025427878,0.00135325917516407,0.00090185989852953,0.268338558504098
0.00556942099319452,0.0327437818755441,0.0321505824876897,0.0536783502926517,0.0442296012263958,0.00135714295986332,0.000906800103402665,0.266833119386711
0.00544954627978753,0.0339196705575942,0.0323143724873085,0.0530387206936232,0.046686241270309,0.00135938792264525,0.000909825508326918,0.265298285775348
0.00532447681523188,0.0351021563167622,0.0324956507341305,0.0523342444326485,0.0492345443540283,0.00136023679621489,0.000910785387985378,0.263787296013727
0.00519605585403097,0.0362833584908381,0.0326914465390487,0.0515791963408407,0.051859931457655,0.00135995019941682,0.000909551681376089,0.262349931300088
0.00506617796801049,0.0374557573321875,0.0328980084571368,0.0507876201383882,0.0545467962826305,0.00135880035418,0.000906022582317036,0.261031618344284
0.00493674934060015,0.0386121613226174,0.0331108135576477,0.0499730277349922,0.0572786060516266,0.00135706448183987,0.000900125544381352,0.259872702018758
0.00480964802473676,0.0397456631658436,0.0333246063291463,0.0491481386803163,0.0600380300231945,0.00135501807243898,0.000891819588964973,0.258907896832821
0.00468668534088288,0.040849591293889,0.0335334679924162,0.0483246650585994,0.0628070946363848,0.00135292818389328,0.000881096821446784,0.258165921912606
0.00456956956806266,0.0419174637402745,0.0337309152554278,0.0475131445754125,0.065567363702212,0.00135104689452147,0.000867983110587191,0.257669321637844
0.0044598729112533,0.0429429499621565,0.0339100260165235,0.0467228223089772,0.0683001421538035,0.00134960503370527,0.00085253794935323,0.257434471566205
0.00435900254044273,0.0439198444226352,0.0340635880257976,0.0459615796654555,0.0709867020466529,0.00134880633969954,0.000834853565754016,0.257471765769959
0.00426817635449794,0.0448420542436976,0.0341842650544959,0.0452359076439367,0.0736085291933903,0.0013488222134915,0.000815053369581559,0.257785976716214
0.00418840399098778,0.0457036021050705,0.0342647743370659,0.0445509206880256,0.0761475874671522,0.00134978722955874,0.00079328980556752,0.258376771921909
0.00412047344280722,0.0464986446567349,0.034298069319304,0.0439104070816016,0.0785865951788919,0.00135179552186431,0.000769741667598265,0.259239362082454
0.00406494344624462,0.047221505987832,0.0342775226430245,0.0433169116624879,0.0809093048956247,0.00135489811128365,0.000744610938562538,0.26036524355957
0.00402214158963076,0.0478667251865831,0.034197104924732,0.0427718460026684,0.0831007762247261,0.00135910120953664,0.000718119249851902,0.261742988274794
0.00399216788597708,0.0484291167540835,0.0340515545447677,0.0422756197991382,0.0851476311741946,0.00136436552648995,0.000690504085198026,0.263359031287676
0.00397490338639649,0.0489038424920187,0.0338365329515389,0.0418277857930871,0.0870382834554106,0.00137060660861455,0.000662014869601529,0.265198411894445
0.00397002330024398,0.0492864931575553,0.0335487602985298,0.0414271903390996,0.0887631356343954,0.00137769623162401,0.000632909077061248,0.267245435641043
0.00397701402506211,0.0495731771908636,0.0331861277828118,0.0410721229723837,0.090314739932738,0.00138546484683189,0.000603448464599785,0.269484237146656
0.00399519343648955,0.0497606120644709,0.0327477849639605,0.0407604602329841,0.091687918208441,0.00139370503225582,0.000573895511227594,0.271899230476657
0.00402373369106661,0.0498462123333203,0.0322342015445867,0.0404898005123938,0.0928798343970019,0.00140217584229161,0.00054451011929634,0.274475431415103
0.00406168565489346,0.0498281684765427,0.0316472029870036,0.04025758685454,0.0938900115971858,0.00141060791539942,0.000515546619543195,0.277198631840744
0.00410800399815953,0.0497055121141127,0.0309899786482682,0.0400612137807334,0.0947202883253075,0.00141870919863949,0.000487251106578,0.280055412052027
0.00416157207218248,0.0494781653107331,0.0302670612821007,0.0398981140687063,0.0953747133703284,0.00142617117003466,0.00045985911868283,0.283032992980495
0.00422122587825022,0.0491469732897235,0.0294842780586793,0.0397658228761774,0.0958593838101034,0.0014326754644243,0.000433593665902239,0.286118949564321
0.00428577664349431,0.04871371997361,0.0286486749473661,0.0396620189759552,0.0961822335880494,0.00143790081331119,0.000408663603028147,0.289300820811531
0.00435403161725958,0.0481811245530744,0.0277684174758117,0.0395845449828378,0.0963527792816572,0.00144153017890341,0.000385262335374841,0.292565655342602
0.00442481265325436,0.0475528166312566,0.0268526709167852,0.0395314092604458,0.0963818274209587,0.00144325791117299,0.000363566831124429,0.295899524352065
0.00449697210240741,0.0468332885978793,0.0259114622271828,0.0395007715360193,0.0962811477660365,0.00144279672681689,0.000343736900148478,0.29928702664187
0.00456940567100242,0.0460278262018858,0.0249555257437597,0.0394909135068239,0.0960631200231733,0.00143988432152075,0.000325914697871393,0.30271080967736
0.00464106216972325,0.0451424205948107,0.0239961351401435,0.0395001961956443,0.0957403656672973,0.00143428947122565,0.000310224424581838,0.306151134802007
0.00471095036219335,0.0441836662281865,0.0230449249753276,0.0395270072650496,0.0953253795110818,0.00142581753151874,0.000296772204475433,0.309585519587938
0.00477814328207017,0.0431586483975964,0.0221137057007439,0.039569702992794,0.0948301756629586,0.00141431528083663,0.000285646132765743,0.312988492386811
0.00484178035987802,0.0420748230259349,0.0212142758363188,0.039626550248709,0.0942659597078676,0.00139967505073996,0.000276916474757211,0.316331491335098
0.00490106759342406,0.0409398911493192,0.0203582342859003,0.0396956731461902,0.0936428361094336,0.00138183804578462,0.000270636002362164,0.319582931334201
0.00495527599774429,0.0397616716581121,0.0195567951708624,0.0397750076130698,0.0929695589776155,0.00136079671849276,0.000266840464726451,0.322708448625686
0.00500373871168413,0.0385479772429406,0.0188206075816062,0.0398622660594388,0.0922533348108162,0.0013365960709795,0.000265549200422774,0.325671317737908
0.00504584732522675,0.0373064992532988,0.0181595830384994,0.0399549138925766,0.0914996861834504,0.00130933380296194,0.000266765899974935,0.328433024645551
0.00508104811835687,0.0360447067266185,0.0175827337179256,0.0400501594467285,0.0907123845844233,0.00127915929493542,0.000270479519054274,0.33095397425404
0.0051088388947183,0.0347697633722638,0.0170980242597064,0.0401449586286542,0.089893458335496,0.00124627147856429,0.000276665331184782,0.333194308811508
0.00512876693688096,0.0334884647080502,0.0167122394016192,0.0402360351196415,0.089043277887817,0.00121091567702849,0.000285286096766321,0.335114814696284
0.00514042837080372,0.032207196360618,0.0164308693822059,0.0403199163184306,0.0881607162074634,0.0011733794831034,0.00029629331310734,0.336677895621727
0.00514346899799949,0.0309319135440643,0.0162580151335515,0.0403929842881857,0.0872433768968498,0.00113398771175195,0.000309628500178947,0.337848587357985
0.00513758646595879,0.0296681406983537,0.0161963153626183,0.0404515395941385,0.0862878779720655,0.00109309646789295,0.000325224467075992,0.338595579855775
0.00512253350368799,0.0284209892366768,0.0162468973281849,0.0404918741803504,0.0852901758368276,0.00105108641784878,0.000343006494133882,0.338892200289252
0.0050981218674292,0.027195190527124,0.0164093524936006,0.0405103481590508,0.0842459126680391,0.00100835541944334,0.000362893363195627,0.338717304799017
0.00506422663973003,0.0259951408026005,0.0166817376140152,0.0405034653136022,0.0831507713204045,0.000965310719388252,0.000384798179658666,0.338056032753969
0.00502079059563904,0.024824954630477,0.0170606012349496,0.040467943217743,0.082000824351234,0.000922360943264248,0.000408628951343904,0.336900392219822
0.00496782844606463,0.0236885235760038,0.0175410348821715,0.0404007755845446,0.0807928663743116,0.000879908081549552,0.000434288911251012,0.335249661755679
0.00490543081033838,0.0225895763176534,0.0181167475635095,0.0402992859121545,0.0795247197688453,0.000838339646574353,0.000461676582222472,0.33311060281184
0.00483376768834907,0.0215317357340431,0.0187801617655877,0.040161171816305,0.0781955022964313,0.00079802116704661,0.00049068557794396,0.330497474144282
0.00475309104933202,0.0205185682390913,0.0195225287466282,0.0399845385856912,0.0768058443523632,0.000759289192630101,0.000521204132211571,0.327431833757998
0.00466373610205635,0.0195536214744412,0.020334060346005,0.0397679199259585,0.0753580462715408,0.000722444984843087,0.000553114363293596,0.323942119211283
0.00456612093154062,0.0186404480428592,0.0212040739200114,0.0395102847643061,0.0738561716315724,0.000687749062151862,0.000586291310299787,0.320063014503568
0.00446074441533744,0.0177826145414323,0.022121146869072,0.0392110310004089,0.0723060782811533,0.00065541674373851,0.00062060181173666,0.315834632362169
0.004348182565108,0.016983696014069,0.0230732776652998,0.0388699691777097,0.0707153922696043,0.000625614801081635,0.000655903319734993,0.311301554723607
0.00422908358578261,0.0162472559110931,0.0240480510051612,0.0384873002439411,0.0690934298121321,0.000598459287152595,0.000692042746788924,0.306511775384318
0.00410416194772612,0.0155768115381514,0.0250328052086729,0.0380635913321751,0.0674510709459724,0.000574014576761828,0.000728855425521939,0.301515580061399
0.00397419163678791,0.0149757856007713,0.0260147998392952,0.0375997521526123,0.065800588809403,0.000552293618635767,0.000766164242732331,0.296364392040166
0.00383999859638063,0.0144474455969586,0.0269813808523869,0.0370970132740785,0.0641554407941413,0.000533259367248755,0.000803779002217272,0.291109612125444
0.00370245231697988,0.0139948338183481,0.0279201401993765,0.036556906919248,0.0625300305858775,0.000516827329613986,0.000841496076223531,0.285801486644943
0.00356245656768678,0.0136206910727174,0.0288190671788027,0.0359812507188451,0.0609394517662672,0.00050286913317645,0.000879098415656736,0.280488041959963
0.00342093935827826,0.0133273770195843,0.0296666897050283,0.0353721348888261,0.0593992232868812,0.000491216998869422,0.000916355996968849,0.275214124659051
0.00327884232318993,0.0131167898770073,0.0304522046222774,0.0347319133440727,0.057925024991248,0.000481668986388448,0.000953026782790557,0.270020581243406
0.00313710979394885,0.0129902884416392,0.0311655968251646,0.0340631992186964,0.0565324390939484,0.000473994861776258,0.000988858259293311,0.264943599884359
0.00299667784525583,0.0129486194830154,0.0317977469532028,0.0333688649663997,0.0552367023509476,0.000467942416858433,0.00102358958315726,0.260014223901702
0.00285846354235198,0.0129918533285636,0.0323405266685484,0.0326520464410228,0.0540524733586962,0.000463244052313375,0.00105695432766409,0.255258037004559
0.00272335450022108,0.0131193300670025,0.0327868794347329,0.0319161490470914,0.0529936193385543,0.000459623433703508,0.00108868377453865,0.250695015176776
0.00259219877331758,0.0133296186008836,0.0331308842606406,0.0311648527977347,0.0520730263301097,0.000456802046294437,0.00111851066916184,0.246339538095717
0.00246579509564049,0.0136204906720297,0.0333678005351087,0.0304021127530882,0.0513024355155792,0.000454505503094945,0.00114617334449664,0.242200552264901
0.00234488356916885,0.0139889116954984,0.0334940935686308,0.0296321519905479,0.0506923063020142,0.000452469487870017,0.00117142012012828,0.238281876207567
0.00223013699616957,0.0144310496845062,0.0335074420738021,0.0288594455425565,0.0502517044345657,0.000450445226700091,0.00119401389090437,0.234582632505482
0.00212215310717067,0.0149423028884323,0.0334067297177334,0.0280886948973867,0.0499882118983886,0.000448204377529517,0.0012137368261608,0.231097782354031
0.0020214479151575,0.0155173460953063,0.0331920225729844,0.0273247929565182,0.0499078551076003,0.000445543229537256,0.00123039509522676,0.22781873155245
0.00192845035022853,0.0161501948299616,0.0328645334190071,0.0265727788082206,0.05001504860993,0.000442286129581912,0.00124382350797283,0.224733977415966
0.00184349827067022,0.0168342859897548,0.032426573661829,0.0258377815206019,0.0503125526509998,0.000438288095047148,0.00125388991289276,0.221829772643839
0.00176683593602612,0.0175625728624842,0.0318814943723028,0.0251249531208719,0.0508014436074163,0.000433436615816555,0.00126049915772587,0.219090789841464
0.00169861303468909,0.018327631836897,0.0312336189847253,0.0244393924610017,0.0514810957419841,0.000427652678151558,0.00126359641665122,0.216500773671832
0.00163888534247551,0.019121777424667,0.0304881709069368,0.023786062816687,0.0523491712971501,0.000420891051124043,0.00126316972606515,0.214043163857357
0.00158761703206402,0.0199371817959045,0.0296511992769651,0.0231697061874843,0.0534016154166905,0.000413139868107151,0.00125925163274793,0.211701666643788
0.00154468458419744,0.0207659951603162,0.0287295052644922,0.0225947566928422,0.0546326537730834,0.000404419532239273,0.00125191991774669,0.209460752892647
0.00150988220773312,0.0216004639177281,0.0277305699415023,0.0220652552113757,0.0560347934525357,0.000394780986210604,0.00124129738636316,0.207306068648619
0.00148292865415511,0.0224330442111251,0.0266624835034258,0.0215847677436421,0.0575988303016631,0.000384303408001006,0.00122755069819658,0.205224754841307
0.00146347528981191,0.0232565088710018,0.0255338749994979,0.0211563103869713,0.0593138672225588,0.000373091416481441,0.00121088819200305,0.203205681853858
0.0014511152467248,0.0240640454500813,0.0243538417712109,0.0207822837953894,0.0611673471641381,0.000361271886412929,0.00119155668806373,0.201239607832005
0.00144539341338796,0.0248493425971996,0.0231318783037283,0.0204644193837186,0.063145102969393,0.000348990476203488,0.0011698373230889,0.199319265693774
0.00144581698681874,0.0256066622869347,0.0218778048073972,0.0202037386581672,0.0652314257579956,0.000336407963029299,0.00114604055443242,0.197439378369888
0.00145186631358994,0.0263308965662892,0.0206016961138447,0.020000526434376,0.0674091544429723,0.000323696465858867,0.00112050052320139,0.195596601834616
0.00146300579090657,0.0270176090244255,0.0193138110899499,0.0198543184319718,0.0696597903702268,0.000311035627976069,0.00109356896771284,0.193789401370719
0.00147869464695765,0.0276630624698525,0.0180245221001113,0.0197639036052826,0.0719636419040162,0.000298608828584164,0.00106560885097536,0.19201787460023
0.0014983974358984,0.028264234719682,0.0167442438898806,0.0197273413273445,0.0743000033179434,0.000286599493145609,0.00103698785593156,0.190283540973486
0.00152159405450212,0.0288188238613172,0.0154833618050526,0.0197419929814162,0.0766473702803739,0.000275187568698135,0.001008071919157,0.188589118354479
0.00154778905800279,0.0293252436107704,0.0142521600753758,0.0198045667224912,0.0789836909735251,0.000264546220449288,0.000979218993153948,0.186938302336076
0.00157652006931555,0.0297826092637291,0.0130607514857947,0.0199111736291886,0.0812866486927198,0.000254838791453283,0.000950773225471184,0.185335557089266
0.00160736513465005,0.0301907151779467,0.0119190098193182,0.0200573934528038,0.0835339695585499,0.00024621605214947,0.000923059712322776,0.183785923002814
0.00163994895090718,0.0305500053431117,0.0108365060065567,0.0202383485279815,0.0857037479115852,0.000238813753062059,0.000896379942487876,0.182294846446013
0.00167394794644679,0.0308615390455706,0.00982244832729154,0.0204487847902682,0.0877747819067603,0.000232750485630719,0.000871008014212788,0.180868038459221
0.0017090942113472,0.0311269536940368,0.00888562656404041,0.0206831588838864,0.089726912341267,0.000228125855151582,0.000847187681014248,0.179511369922028
0.00174517823703573,0.0313484263863345,0.00803435966926438,0.0209357298508166,0.0915413579372353,0.00022501897324192,0.000825130249692801,0.178230809219104
0.00178205037205086,0.0315286347156458,0.00727644620447962,0.02120065319344,0.093201038988491,0.000223487279367049,0.000805013314026121,0.177032403615815
0.0018196208836087,0.0316707160135599,0.00661911657543063,0.0214720748124344,0.0946908784487987,0.000223565697335626,0.000786980275566448,0.175922297948801
0.00185785854889147,0.0317782234478008,0.00606898601446111,0.021744222622869,0.0959980677250341,0.000225266125947291,0.000771140589241166,0.174906777244805
0.00189678777135413,0.0318550774713032,0.00563200740808565,0.0220114943275013,0.0971122858309058,0.000228577260784061,0.000757570670427691,0.17399231691619
0.00193648429949526,0.0319055118610041,0.00531342339938772,0.0222685405309072,0.0980258645829136,0.000233464748327755,0.000746315398810594,0.173185625616171
0.00197706968247468,0.0319340145014494,0.00511771759212256,0.0225103427462618,0.0987338969341365,0.000239871680524025,0.000737390140055142,0.172493670022147
0.00201870459531883,0.0319452635294194,0.00504856501034835,0.0227322856057122,0.0992342876613583,0.00024771944335571,0.000730783179607451,0.171923674915869
0.00206158112201667,0.0319440590087921,0.00510878213590158,0.0229302218506313,0.0995277443931139,0.000256908933885173,0.000726458444529478,0.171483092558197
0.00210591407487056,0.0319352494069393,0.00530027683101462,0.0231005281121798,0.0996177055269859,0.000267322155289203,0.000724358394711803,0.171179531549847
0.00215193149113799,0.0319236519654491,0.00562399830561574,0.0232401495869781,0.0995102036303505,0.000278824189121383,0.000724406989766718,0.171020632468431
0.00219986455061717,0.0319139669668895,0.0060798871919622,0.0233466323936656,0.0992136679762424,0.000291265530253326,0.00072651266934673,0.171013881251449
0.00224993724440544,0.0319106873611733,0.00666682595078195,0.0234181433142532,0.098738675141927,0.000304484755255963,0.000730571308317158,0.171166360636489
0.0023023561475215,0.0319180064461436,0.00738259031646041,0.0234534773154601,0.0980976593284356,0.000318311481736731,0.000736469112631625,0.171484450237423
0.00235730059581126,0.0319397266157856,0.00822380321195451,0.0234520532736835,0.097304592980632,0.000332569565196085,0.000744085403737107,0.171973491901942
0.00241491349333516,0.0319791714622162,0.00918589333564152,0.0234138977470276,0.0963746454452452,0.000347080469596868,0.000753295213228676,0.172637436141454
0.00247529293769321,0.0320391026217523,0.0102630612073667,0.0233396162883737,0.0953238263891419,0.000361666735364318,0.000763971596707687,0.173478481279786
0.00253848484865894,0.0321216426449106,0.0114482556761998,0.0232303522728252,0.0941686222208725,0.000376155456827843,0.000775987582697904,0.174496716376376
0.0026044768002106,0.0322282058433703,0.0127331637161805,0.023087734274395,0.0929256363116039,0.000390381678344426,0.000789217694845725,0.175689783160219
0.00267319327249634,0.0323594400458608,0.0141082159782988,0.0229138140564223,0.091611245712661,0.000404191627714144,0.000803539017075929,0.177052577938244
0.00274449254379149,0.0325151829697434,0.0155626102409062,0.0227109976293403,0.0902412870464991,0.000417445723060134,0.000818831803931041,0.17857701826244
0.00281816541065657,0.0326944370576267,0.0170843546121288,0.0224819714256868,0.0888307817819894,0.000430021307023347,0.00083497966178328,0.180251898854807
0.00289393584153329,0.0328953659033708,0.0186603320268916,0.022229625187686,0.0873937071971196,0.000441815070787419,0.000851869329529683,0.182062856317608
0.00297146357452141,0.033115314057078,0.0202763872238786,0.0219569733932999,0.0859428161495302,0.000452745125022307,0.000869390068746166,0.183992453786233
0.00305034863384435,0.0333508507764845,0.0219174369817145,0.0216670777966852,0.0844895072340392,0.000462752663159377,0.000887432659569575,0.186020387753206
0.00313013777152732,0.0335978374931979,0.0235676039318892,0.0213629743582656,0.0830437464819115,0.000471803160534719,0.000905888017779653,0.188123811856006
0.00321033289677244,0.0338515181434546,0.0252103737344156,0.0210476079992856,0.081614041683407,0.000479887066572248,0.000924645498411213,0.190277766949564
0.0032904015779919,0.0341066307918244,0.0268287747973094,0.020723778076073,0.0802074700707321,0.000487019971719647,0.000943591009588883,0.192455703399352
0.00336978964898348,0.0343575380714884,0.0284055790472958,0.0203940966039249,0.0788297590704845,0.000493242257715028,0.000962605099940192,0.194630080164986
0.003447935822635,0.0345983730189042,0.029923521490498,0.0200609605721925,0.0774854178787146,0.000498618258620128,0.000981561185190063,0.196773025289471
0.00352428806633455,0.0348231961505454,0.0313655353367075,0.0197265391853496,0.076177914597745,0.000503234962150398,0.00100032405437438,0.198857042590116
0.00359832136695053,0.0350261592877972,0.0327149982211343,0.0193927762949978,0.0749098898303065,0.000507200269244744,0.0010187487766274,0.200855747814499
0.00366955641442607,0.0352016715872456,0.0339559838477519,0.0190614075188263,0.0736833940829913,0.000510640823495337,0.00103668012520892,0.202744612497917
0.0037375786646968,0.0353445630551905,0.0350735127752213,0.0187339906254461,0.0725001343786641,0.000513699432307008,0.00105395262972434,0.204501686312862
0.00380205721565778,0.0354502400409819,0.0360537962962611,0.0184119468907603,0.071361715580278,0.000516532122829326,0.00107039134403109,0.206108264274215
0.00386276294557657,0.0355148261613148,0.036884468164944,0.0180966105279488,0.070269863881164,0.000519304897292866,0.00108581337227275,0.207549467569294
0.00391958539551104,0.0355352820254826,0.0375547996599066,0.0177892830855958,0.0692266229463199,0.000522190265718009,0.00110003013827449,0.208814715016322
0.00397254786921764,0.0355094985100495,0.0380558933830197,0.0174912898236976,0.0682345159776247,0.000525363633715399,0.00111285032571722,0.209898072212543
0.00402182013532848,0.0354363606086929,0.0383808503565035,0.0172040352201864,0.0672966679934034,0.000528999608563444,0.0011240833706312,0.21079847191545
0.00406772802849493,0.035315781037723,0.0385249048136111,0.0169290545707594,0.0664168814725198,0.000533268267421325,0.00113354336534806,0.211519798344154
0.00411075929824443,0.0351487037865187,0.0384855224700059,0.0166680582166649,0.0655996576784316,0.000538331422571077,0.0011410532323875,0.212070823885454
0.00415156526113916,0.0349370774246616,0.0382624603975371,0.0164229649697167,0.06485015808432,0.000544338925194345,0.00114644903187246,0.212464988276058
0.00419095807657628,0.0346837975592232,0.0378577885971469,0.016195922146778,0.0641741050562573,0.000551425066763679,0.00114958425479692,0.212720019733454
0.00422990365685502,0.0343926187434007,0.0372758738724339,0.0159893109472295,0.0635776263100275,0.000559705156869023,0.00115033392233912,0.212857409819921
0.00426951024475261,0.03406803814236,0.0365233259853614,0.0158057371168834,0.0630670514018492,0.000569272368022798,0.00114859829275384,0.212901762627743
0.00431101261801155,0.0337151553182078,0.035608906142856,0.0156480074032494,0.0626486692391556,0.000580194933658909,0.00114430600252074,0.212880039630288
0.00435575190592624,0.0333395135564092,0.0345433993431094,0.0155190921848537,0.0623284544317516,0.000592513767312829,0.00113741652909391,0.212820716749115
0.00440515118887486,0.0329469278314698,0.0333394541703596,0.0154220746027177,0.062111770268102,0.000606240554139162,0.00112792193020464,0.212752868757288
0.00446068731318901,0.0325433038194434,0.0320113951267586,0.01536008710088,0.0620030580883869,0.000621356359546356,0.00111584785717476,0.212705201387581
0.00452385958194307,0.0321344525770298,0.0305750127692065,0.0153362372559544,0.0620055254341391,0.00063781079920845,0.00110125383772523,0.212705059302207
0.00459615608619245,0.0317259064884114,0.0290473360773107,0.0153535256185873,0.0621208469054892,0.000655521813130425,0.00108423279983371,0.21277744267839
0.00467901838371741,0.0313227429262782,0.0274463909479035,0.0154147585779076,0.0623488911339631,0.000674376080320006,0.00106490981263436,0.212944062904753
0.0047738051102854,0.0309294220158507,0.0257909490945964,0.0155224589693373,0.0626874851745453,0.000694230100121363,0.00104344006604267,0.213222461191596
0.00488175509192032,0.0305496439248799,0.0241002723935285,0.0156787768142756,0.0631322257454079,0.000714911953107173,0.00102000617346027,0.213625209789396
0.00500395065674026,0.030186230114332,0.0223938581239362,0.0158854026205755,0.0636763458662053,0.00073622373915734,0.000994814929882435,0.21415921625573
0.00514128204386744,0.0298410324830989,0.0206911901743683,0.0161434859381998,0.064310644897758,0.000757944670804477,0.000968093667382394,0.214825153955814
0.00529441396549324,0.0295148739802989,0.0190115003663338,0.0164535620371804,0.0650234889403657,0.000779834772403301,0.000940086325422481,0.215617043192535
0.00546375540122105,0.0292075235951489,0.0173735432844918,0.0168154894197862,0.0658008865461501,0.0008016391015279,0.000911049332233837,0.216522004449038
0.00564943356682622,0.0289177075010205,0.0157953875524844,0.0172284003337515,0.0666266417183182,0.00082309237944312,0.000881247397265038,0.217520197542757
0.00585127280625034,0.0286431566489172,0.0142942260081557,0.0176906657462978,0.0674825825752573,0.000843923902021179,0.000850949330248962,0.218584951018032
0.00606877902036713,0.0283806895535722,0.012886206498555,0.0181998757047263,0.0683488604185384,0.000863862601822483,0.000820424009953768,0.219683079098337
0.00630113016002564,0.0281263276326036,0.0115862842098794,0.0187528357336375,0.069204310675695,0.000882642142689109,0.000789936613665142,0.220775379854268
0.00654717321915146,0.0278754392975473,0.0104080958045922,0.0193455798097546,0.0700268646170586,0.000900005944423872,0.000759745186170383,0.221817306540282
0.00680542803907188,0.0276229078755134,0.00936385508547071,0.0199734003894051,0.0707939992224539,0.000915712049204584,0.000730097584778685,0.222759802821139
0.00707409808548849,0.0273633171959784,0.0084642693405062,0.0206308958096384,0.07148321225933,0.000929537743244737,0.000701228799614307,0.223550290815661
0.00735108820595549,0.027091147680943,0.00771847510115248,0.0213120350049076,0.0720725102124458,0.000941283828468883,0.000673358623859887,0.224133797924798
0.00763402922296578,0.026800975642761,0.00713399195248171,0.0220102387765282,0.0725408972593871,0.000950778410456139,0.000646689638667739,0.224454203701522
0.00792030903349152,0.0264876692884174,0.00671669318649194,0.0227184759453845,0.0728688527889569,0.000957880061969927,0.000621405480937238,0.224455580661288
0.00820710961862819,0.0261465761673421,0.00647079223916771,0.0234293720128149,0.0730387830001734,0.000962480250974162,0.00059766937244333,0.224083593294266
0.00849144905396323,0.0257736977249918,0.00639884379376487,0.0241353277177276,0.0730354313306103,0.000964504977455932,0.000575622893571764,0.223286911983753
0.0087702274145843,0.0253658466436524,0.00650175824647918,0.0248286450808478,0.0728462347196359,0.0009639156213845,0.000555384974488405,0.222018597654938
0.00904027548044099,0.0249207821958491,0.00677882814076412,0.0255016589645519,0.0724616172868658,0.000960709038226904,0.000537051062339187,0.220237419091741
0.00929840531725426,0.02443731916003,0.00722776518041569,0.0261468725216587,0.0718752178650729,0.000954916934047848,0.000520692428494999,0.217909074984809
0.00954146200582587,0.0239154073319612,0.00784474643611906,0.0267570947842959,0.0710840508160844,0.000946604532333531,0.000506355607385534,0.215007302149921
0.00976637586112947,0.0233561806828912,0.00862446839182533,0.0273255779206109,0.0700885994918753,0.000935868550193468,0.00049406199287557,0.21151485502862
0.00997021430927406,0.0227619769012116,0.00956020764460953,0.0278461509194293,0.0688928400563497,0.000922834538348656,0.000483807642632398,0.20742433784594
0.0101502322714245,0.0221363287282318,0.0106438874293669,0.0283133463801315,0.067504193317766,0.00090765368613993,0.000475563345209279,0.202738865797585
0.0103039197342149,0.0214839281857298,0.0118661495858095,0.0287225177438507,0.0659334046790577,0.000890499225878826,0.000469274990474231,0.197472533260376
0.0104290453103364,0.0208105645154639,0.0132164318712487,0.0290699452836384,0.0641943561434548,0.00087156257356244,0.000464864266229928,0.191650675703202
0.0105236949373135,0.0201230371947845,0.0146830504570323,0.0293529299070073,0.0623038179981872,0.00085104931752884,0.000462229693466788,0.185309923649084
0.0105863052650851,0.0194290465260914,0.0162532872615415,0.029569873798001,0.0602811500359221,0.000829175141004755,0.000461248008899269,0.178498057043175
0.0106156915487224,0.0187370654064425,0.017913481911211,0.0297203461424399,0.0581479621472485,0.000806161760002201,0.000461775902675373,0.171273672851297
0.0106110698240499,0.0180561964112893,0.0196491286443831,0.0298051315502022,0.0559277422467641,0.000782232968584285,0.000463652118437278,0.163705676212426
0.0105720728495904,0.0173960180771213,0.0214449791507255,0.0298262590785425,0.0536454578213284,0.000757610892852916,0.000466699919168563,0.15587260015281
0.0104987591135169,0.0167664237576596,0.0232851528998104,0.0297870108059898,0.0513271373459482,0.000732512548729393,0.0004707299128083,0.147861757606327
0.0103916143800663,0.0161774563066227,0.0251532567355514,0.0296919100770461,0.0489994390378213,0.000707146772944101,0.000475543215722446,0.139768233789825
0.0102515457025161,0.0156391420328244,0.0270325152580001,0.0295466901229689,0.046689215923716,0.000681711566832922,0.000480934911988799,0.131693733977386
0.0100798683365486,0.0151613274317738,0.0289059127369972,0.0293582433672092,0.0444230870454338,0.000656391875296282,0.000486697746408622,0.123745307822018
0.00987828631277484,0.0147535218353795,0.0307563461628227,0.0291345509322558,0.0422270241909396,0.000631357817135954,0.000492625973435075,0.116033973685568
0.00964886740575836,0.0144247485207292,0.0325667879245162,0.028884591786285,0.0401259618875107,0.000606763377826264,0.000498519274358516,0.108673264037686
0.00939401293965574,0.0141834063875825,0.034320455804033,0.0286182318192239,0.0381434366173824,0.000582745562480887,0.000504186648373683,0.10177770888763
0.00911642264560252,0.0140371440919066,0.0360009875825239,0.0283460943798142,0.0363012602071866,0.000559423982553456,0.000509450173171536,0.0954612728053245
0.00881905484703662,0.0139927483034636,0.0375926175968828,0.0280794147675026,0.034619231875387,0.000536900825125968,0.000514148514230501,0.0898357629167765
0.0085050825210667,0.0140560473775061,0.0390803529820099,0.027829881325336,0.0331148928795984,0.000515261142379795,0.000518140050453183,0.0850092282582799
0.0081778461024771,0.0142318311407481,0.0404501478393828,0.0276094650495047,0.0318033266303529,0.00049457340222602,0.00052130549300633,0.0810843728263245
0.0078408041013346,0.0145237867988777,0.0416890737641532,0.0274302387655027,0.030697005570629,0.000474890250981293,0.000523549906160788,0.0781570040737668
0.00749748257396047,0.0149344504021543,0.0427854845708553,0.0273041867707801,0.029805684695038,0.000456249444090132,0.000524804082892773,0.0763145358157789
0.00715142423860744,0.0154651729794541,0.0437291716993417,0.0272430065058693,0.029136340720922,0.000438674893307817,0.000525025266214015,0.0756345621410036
0.00680613780713679,0.0161161003739244,0.0445115056853907,0.0272579049568862,0.0286931554678083,0.000422177767384144,0.000524197222871587,0.0761835187715787
0.0064650481091325,0.0168861659486152,0.0451255591911422,0.0273593936568496,0.0284775416361103,0.000406757587202922,0.00052232967160373,0.0780154498318556
0.00613144776065606,0.0177730956014359,0.0455662083522476,0.0275570868463948,0.0284882086302711,0.000392403277964319,0.000519457070731815,0.0811708998569847
0.00580845131602879,0.0187734247998033,0.0458302109603485,0.0278595071966855,0.0287212651504186,0.000379094167527214,0.000515636794308487,0.0856759518451359
0.00549895288926253,0.0198825274157947,0.0459162613699638,0.0282739026593654,0.0291703540144778,0.000366800936571559,0.000510946762162496,0.091541431263348
0.00520558808782161,0.0210946558163992,0.0458250221566148,0.0288060773577072,0.029826813576651,0.000355486525451327,0.00050548262137387,0.0987622931354362
0.00493070089162174,0.0224029910739356,0.0455591313995215,0.0294602394816284,0.0306798597403251,0.000345106994385115,0.000499354593684748,0.107317206336563
0.00467631600249812,0.0237997019030772,0.045123183438681,0.0302388696551583,0.0317167830736155,0.000335612334328887,0.000492684100422059,0.117168347574434
0.00444411718100416,0.0252760113890526,0.0445236813669839,0.0311426137636719,0.0329231567663393,0.000326947236734258,0.000485600259685632,0.128261417144053
0.00423543208585055,0.0268222716348358,0.0437689611628877,0.0321702044107604,0.0342830527357591,0.000319051843004785,0.000478236336230498,0.1405258885229
0.00405122406303356,0.0284280477256055,0.0428690892655462,0.0333184148692103,0.0357792645207393,0.000311862501040012,0.000470726222012527,0.153875503331104
0.00389209117063959,0.0300822133559413,0.0418357364160287,0.0345820486512436,0.0373935360708376,0.000305312552606016,0.000463201031305223,0.168209021458457
0.00375827250411079,0.0317730606044894,0.0406820301138864,0.0359539668134427,0.0391067948820268,0.000299333164069608,0.000455785900973375,0.183411232940034
0.00364966166354558,0.0334884255828547,0.0394223870493145,0.0374251539451427,0.040899386935495,0.000293854203804129,0.000448597086533334,0.199354233395533
0.00356582698985082,0.0352158306466625,0.0380723270298964,0.0389848224115511,0.042751310640935,0.000288805167025662,0.000441739433558081,0.215898958504129
0.00350603798041546,0.036942643131548,0.0366482712518228,0.0406205527586865,0.0446424475824545,0.000284116148903857,0.000435304283699515,0.232896964834695
0.00346929708889903,0.0386562500679337,0.0351673290808119,0.0423184665860799,0.0465527888760321,0.000279718863038279,0.000429367853040481,0.250192434499577
0.00345437591948075,0.0403442477172299,0.0336470776988386,0.0440634272456752,0.0484626569722975,0.000275547693596377,0.000423990101887406,0.26762437120297
0.00345985466379489,0.0419946439071056,0.0321053380844348,0.0458392636252838,0.0503529235285284,0.000271540763557093,0.000419214098127157,0.285028947472759
0.00348416355580222,0.0435960701106364,0.0305599501854881,0.0476290128261333,0.0522052243724668,0.000267641003325698,0.000415065860251371,0.302241958267661
0.00352562516084765,0.0451379992622974,0.0290285504813524,0.0494151783519961,0.0540021724312515,0.000263797208218953,0.000411554652699202,0.319101334883836
0.00358249643885741,0.0466109646812577,0.0275283557877629,0.0511800010195382,0.0557275685987823,0.000259965072338137,0.000408673697316005,0.335449674419828
0.00365300965514204,0.0480067752433917,0.0260759573227359,0.0529057397292486,0.0573666086982501,0.000256108178667061,0.000406401260386579,0.351136742177379
0.00373541126666673,0.0493187218705137,0.024687128363715,0.0545749581666595,0.0589060822674824,0.000252198918328429,0.000404702071163954,0.366021904245099
0.00382799785670133,0.0505417699631233,0.0233766477023091,0.0561708115102377,0.0603345568418124,0.000248219310773639,0.000403529019168442,0.379976441513554
0.00392914814835193,0.0516727310984305,0.0221581403131652,0.0576773253055853,0.0616425404904627,0.000244161698884727,0.000402825063685626,0.39288568444764
0.00403735024072869,0.0527104056288877,0.0210439363936,0.0590796579972306,0.0628226157310301,0.000240029295599907,0.000402525281201415,0.40465089886254
0.0041512234809561,0.0536556872223372,0.020044949978361,0.0603643395278064,0.0638695394514449,0.000235836561078468,0.000402558983111024,0.415190855977525
0.00426953472256908,0.0545116216215909,0.0191705784422919,0.0615194805799491,0.0647803056929879,0.000231609391915508,0.000402851852850076,0.424443035900871
0.00439120901091846,0.0552834145947545,0.0184286241411649,0.0625349496055947,0.065554170353986,0.000227385105554615,0.000403328068495816,0.432364436686518
0.00451533487160558,0.0559783872293552,0.0178252390085885,0.0634025165494326,0.0661926380562934,0.000223212200945839,0.000403912383489111,0.438931981527308
0.00464116433737546,0.0566058790941517,0.0173648921471078,0.064115962041673,0.0666994107299696,0.000219149870670357,0.000404532131062952,0.444142524099505
0.00476810779158686,0.0571771002156927,0.0170503597179792,0.0646711492763177,0.0670802956241421,0.000215267238710757,0.000405119108944863,0.448012445392457
0.00489572380674638,0.0577049317976792,0.0168827360390471,0.0650660551937463,0.0673430698638423,0.000211642308932584,0.000405611304014303,0.450576831557414
0.00502370441122474,0.0582036757032726,0.0168614646653538,0.0653007592291875,0.0674973005304228,0.000208360629407567,0.000405954431696624,0.451888236027832
0.00515185652363305,0.0586887552602261,0.0169843882060043,0.0653773909419347,0.067554122789792,0.000205513698622689,0.000406103283584767,0.452015056462195
0.00528008053460338,0.0591763739259117,0.0172478156578729,0.0653000407508876,0.0675259823558269,0.000203197152637629,0.000406022889820034,0.451039585436102
0.00540834709307028,0.0596831419060816,0.0176466060799958,0.0650746392996048,0.0674263510140606,0.000201508773813812,0.000405689503260533,0.449055810712526
0.00553667304725782,0.0602256822891348,0.018174267400509,0.0647088099933393,0.0672694239521192,0.00020054635932592,0.00040509140045612,0.446167039414814
0.00566509732402066,0.0608202273581023,0.018823068864744,0.0642116973447031,0.0670698057634438,0.000200405491181235,0.000404229480243573,0.442483407856268
0.0057936574530559,0.0614822145109266,0.0195841650457536,0.0635937732421267,0.0668421905901142,0.000201177258568111,0.000403117633902456,0.43811933225332
0.00592236746131521,0.0622258914818137,0.0204477288397041,0.0628666245456142,0.0666010422960161,0.000202945992463583,0.000401782861637513,0.433190960201211
0.006051197910441,0.0630639418629357,0.0214030908999734,0.0620427274039677,0.0663602821582204,0.000205787076880663,0.000400265116280356,0.427813691939867
0.00618005886453959,0.0640071429784839,0.0224388835047126,0.0611352149641323,0.0661329931376496,0.000209764898690716,0.000398616864508504,0.422099846254051
0.00630878651965634,0.065064067932033,0.0235431875731388,0.0601576446444952,0.0659311503076134,0.000214930990808732,0.000396902365552211,0.416156543040512
0.00643713408753856,0.0662408417586571,0.024703682009072,0.0591237691729485,0.0657653858506633,0.000221322417186603,0.000395196672012103,0.410083861419582
0.0065647673070612,0.06754095872338,0.0259077943856867,0.0580473140881729,0.0656447944508713,0.000228960443739589,0.000393584351975715,0.403973312373631
0.00669126466470912,0.0689651651462126,0.0271428513379591,0.0569417644990237,0.0655767823755624,0.000237849533645595,0.000392157921676641,0.397906646063699
0.00681612208031724,0.0705114101556188,0.0283962266932346,0.0558201649967652,0.06556696214414,0.000247976696254112,0.000391015979517997,0.391955000342236
0.00693876154732,0.0721748652952861,0.0296554857727047,0.0546949376205641,0.0656190942284635,0.000259311207824876,0.000390261051171627,0.386178387869243
0.00705854307989826,0.0739480127210684,0.0309085250890989,0.0535777227499038,0.0657350770735691,0.000271804710909464,0.000389997183549683,0.380625513092036
0.00717477932337962,0.075820800614708,0.032143707159932,0.0524792463119995,0.0659149862585801,0.000285391688052212,0.00039032734956307,0.375333905560452
0.00728675228453743,0.0777808630668415,0.0333499898068383,0.0514092143891693,0.0661571623656937,0.000299990297402846,0.000391350734389554,0.370330350431799
0.00739373173934033,0.0798137995522208,0.0345170484995028,0.0503762345332099,0.0664583448179901,0.000315503552475797,0.000393159967753516,0.365631587630985
0.00749499485494158,0.0819035059955481,0.0356353900587138,0.0493877623258083,0.0668138459033021,0.00033182082100804,0.000395838361543379,0.361245236512606
0.00758984636873891,0.0840325462819716,0.0366964565349355,0.0484500716422106,0.0672177566314216,0.000348819607665963,0.000399457218890546,0.357170888643917
0.00767763846573314,0.0861825514746998,0.0376927186499892,0.0475682473007247,0.0676631749898082,0.000366367578918612,0.000404073294963052,0.353401306464183
0.00775778950281363,0.0883346344424397,0.0386177580516146,0.0467461990540152,0.068142447673703,0.000384324789117695,0.000409726502093567,0.34992367207165
0.00782980095022232,0.0904698094596768,0.0394663366056405,0.0459866959800077,0.0686474179406854,0.000402546070550138,0.000416437955161491,0.346720843601828
0.00789327221809642,0.0925694083400588,0.0402344500001285,0.0452914199573034,0.0691696738333382,0.000420883551078,0.000424208444214532,0.343772588722114
0.007947913235172,0.0946154851644936,0.0409193630163768,0.0446610357171451,0.0697007913062556,0.000439189256696449,0.000433017404568833,0.341056767586508
0.0079935546097694,0.0965911997661821,0.0415196248039295,0.0440952732459655,0.0702325652707159,0.000457317741956659,0.000442822439191428,0.338550430339981
0.00803015498755405,0.0984811677008343,0.0420350636151892,0.0435930173816872,0.0707572200867268,0.000475128674825188,0.000453559436207832,0.33623078941994
0.00805780511378605,0.10027176458503,0.042466760780849,0.0431524001183358,0.0712675918427253,0.000492489294539302,0.00046514331148564,0.334076034861819
0.00807672826674454,0.101951375962944,0.0428170028946263,0.0427708930132145,0.0717572777823694,0.000509276666431671,0.000477469388352232,0.332065978667179
0.0080872770568062,0.103510588667141,0.043089210449714,0.0424453992282542,0.0722207519594154,0.000525379674909219,0.000490415403571649,0.330182533731748
0.00808992689234587,0.104942323773949,0.043287841942965,0.0421723461557074,0.0726534489135555,0.000540700717558348,0.000503844104708653,0.328410046054911
0.00808526651565144,0.106241912659678,0.0434182745543804,0.041947779618318,0.0730518175482002,0.000555157078051246,0.000517606380766997,0.326735500870935
0.00807398585149176,0.107407115689422,0.0434866647728903,0.041767459351611,0.0734133455511718,0.000568681953391345,0.000531544843480595,0.325148614496213
0.00805686120414958,0.108438080453643,0.0434997935272155,0.0416269539405332,0.0737365529455842,0.000581225099869647,0.000545497750832,0.323641813447326
0.00803473785448321,0.109337236865178,0.0434648999208597,0.0415217326513959,0.0740209537298245,0.000592753064601575,0.000559303143022668,0.322210100000967
0.00800851035283426,0.110109130255712,0.0433895066545877,0.04144725179718,0.074266986905941,0.000603248992941869,0.000572803050248429,0.320850809252486
0.00797910112296331,0.110760199021824,0.0432812402702662,0.0413990341148209,0.0744759213146479,0.000612712035926108,0.000585847632483263,0.319563273021391
0.00794743820857549,0.111298507915769,0.0431476505412896,0.0413727407538332,0.0746497411834478,0.000621156411587927,0.00059829911953059,0.318348416227579
0.00791443296954922,0.111733449505298,0.0429960347894904,0.0413642364349214,0.0747910198682392,0.000628610187501829,0.000610035424294726,0.317208317503508
0.00788095830584993,0.112075424048351,0.0428332737974638,0.0413696486542473,0.0749027875209529,0.000635113843741499,0.000620953294026689,0.316145764511138
0.00784782781775944,0.112335504988996,0.0426656858245396,0.0413854211074963,0.0749883959671363,0.000640718653906179,0.000630970854837156,0.31516382492115
0.00781577636718819,0.112525096946137,0.0424989039410342,0.0414083599889177,0.075051383089884,0.000645484906731021,0.00064002942036869,0.314265441981506
0.00778544270580522,0.112655595426048,0.0423377799324367,0.0414356705789413,0.0750953397001265,0.000649479992209225,0.000648094481298168,0.31345305757695
0.00775735502129997,0.11273806064284,0.0421863162756127,0.0414649814275637,0.0751237832985358,0.000652776391079047,0.000655155850266578,0.312728267762944
0.00773192028490353,0.112782919833258,0.0420476266281682,0.0414943544253905,0.0751400443551849,0.000655449627126914,0.000661226980533442,0.312091522770924
0.00770941809669292,0.112799711879012,0.0419239248397904,0.0415222806504958,0.0751471710284209,0.00065757625837338,0.00066634348837206,0.31154189063687
0.00768999940302513,0.112796884535736,0.0418165424484241,0.0415476634165786,0.075147857096386,0.000659231986635064,0.000670560905946509,0.311076905992741
0.00767369018444458,0.112781649820496,0.0417259746170379,0.0415697906710999,0.0751443951821874,0.000660489950193849,0.000673951711100585,0.310692519822617
0.00766040004367824,0.112759899657447,0.041651954067086,0.041588298322194,0.0751386541949633,0.000661419237852551,0.000676601730411198,0.310383154154922
0.00764993550161481,0.112736182250616,0.0415935514037905,0.0416031248964224,0.0751320779878157,0.000662083641090248,0.000678606071609122,0.310141855729807
0.0076420176656805,0.112713738912459,0.0415492984358835,0.0416144576844994,0.0751257020656362,0.000662540652722192,0.00068006478615387,0.309960538907919
0.00763630372975715,0.11269460009703,0.0415173294492666,0.0416226716823992,0.075120186174116,0.000662840722916473,0.000681078475380749,0.309830308135799
0.0076324114870986,0.112679737193324,0.0414955343156974,0.0416282644778628,0.075115861718542,0.000663026790822194,0.000681744042163622,0.309741849971857
0.00762994569238579,0.112669262624494,0.0414817164972449,0.0416317917136133,0.0751127929922149,0.000663134114923695,0.000682150785765479,0.30968588024281
0.00762852470712136,0.112662665388035,0.0414737480019867,0.041633807964285,0.0751108493703919,0.000663190419146112,0.000682377052537853,0.309653621358431
0.00762780544756016,0.112659063980884,0.0414697118825856,0.0416348168142804,0.0751097828687775,0.000663216350856956,0.000682487674932364,0.309637270617267
0.00762750429446426,0.112657454585656,0.0414680208942194,0.0416352329564824,0.0751093037384371,0.000663226221915265,0.000682532438421323,0.309630407980327
0.00762741133662822,0.112656928915771,0.0414674986287406,0.0416353590906643,0.0751091463448319,0.000663228989659729,0.000682545801842938,0.30962828264747
