APL,FCR,FDS,FDP,ED,EI,ECU,ECR
0.00374970454577999,0.0184956350530606,0.0596232663301933,0.0225184879924758,0.00604814031777971,0.0808821741766006,0.0430278257923779,0.0115359022991615
0.0038547626243171,0.0213158687995357,0.0647033431666173,0.0268838502815475,0.00748596904907321,0.105237413107695,0.0596635256013222,0.0184472454630904
0.00395125171347155,0.0240623055618264,0.0693065558309307,0.0309647274311672,0.00882912068279354,0.128193717704678,0.075157809606988,0.0249774393322084
0.00403928094603745,0.0267165048715774,0.073392503831567,0.0347261052396888,0.0100671239526091,0.149566355157088,0.089389244375466,0.0310742047724676
0.00411922270844779,0.0292614922474406,0.0769286922854171,0.0381373439800883,0.0111911418914897,0.169193576792067,0.102255777364433,0.0366914393030218
0.00419171631987831,0.0316820324280709,0.0798912620416953,0.0411727157708152,0.0121941492841259,0.18693959470923,0.113676715007246,0.0417900281023515
0.00425766344210131,0.0339648530024692,0.0822655042415116,0.0438118144543691,0.0130710645648157,0.202696906156303,0.123594147019393,0.0463384743064648
0.00431821504941919,0.0360988147182659,0.0840461457140587,0.0460398303598145,0.0138188334667062,0.216387920263592,0.131973789964257,0.0503133368069621
0.00437475035443507,0.0380750288727639,0.0852374064322592,0.0478476912700201,0.0144364646231786,0.227965884082684,0.138805257999288,0.0536994754503725
0.00442884851605477,0.0398869246451278,0.0858528408802862,0.0492320769373455,0.0149250192388342,0.237415131225751,0.144101791062746,0.0564901108099862
0.00448225419025072,0.0415302695647718,0.0859149795328079,0.0501953166946876,0.0152875576473371,0.244750684196207,0.147899478708191,0.0586867080260994
0.00453683801555661,0.0430031456230854,0.0854547863026815,0.0507451793898913,0.0155290455407105,0.250017242008003,0.150256018821206,0.0602986947534423
0.00459455299886536,0.0443058835431816,0.084510947922403,0.0508945649278291,0.0156562228509908,0.25328759235235,0.151249054907677,0.0613430256570759
0.00465738760523001,0.0454409587576574,0.0831290144159618,0.0506611083022845,0.0156774390342642,0.254660503465813,0.150974145087834,0.0618436102300746
0.00472731628664298,0.0464128540007258,0.0813604147001451,0.0500667093805707,0.0156024595488943,0.254258168154203,0.149542426449085,0.0618306252203922
0.00480624824500487,0.0472278942352826,0.0792613757690682,0.0491370038936628,0.0154422492187702,0.252223284148507,0.147078046346995,0.0613397360363839
0.00489597538762263,0.0478940592261145,0.0768917763744463,0.0479007924280152,0.015208738591209,0.248715856624655,0.143715435481189,0.0604112521803941
0.00499812064357963,0.0484207776167894,0.0743139660532581,0.0463894443954928,0.0149145792031386,0.243909801908387,0.13959649560581,0.0590892401480255
0.00511408798916514,0.0488187052425343,0.0715915780010762,0.0446362929338781,0.0145728931296336,0.237989424697367,0.134867768733125,0.0574206148989942
0.00524501559969918,0.0490994905002651,0.068788360470171,0.0426760346661452,0.0141970217787704,0.231145839544092,0.129677647398102,0.0554542293754692
0.00539173345706971,0.0492755304534531,0.0659670472979775,0.040544145779847,0.0138002786941121,0.223573407930834,0.124173678913263,0.0532399804173096
0.00555472655692258,0.0493597219704822,0.0631882846858486,0.0382763236426275,0.013395710897212,0.215466260258179,0.118500010306316,0.0508279480024915
0.0057341047130421,0.0493652116747875,0.0605096286478548,0.0359079613401887,0.0129958728516394,0.20701496494531,0.11279501407578,0.0482675825394715
0.00592957988621438,0.0493051469696946,0.0579846256272811,0.0334736610105915,0.0126126165080396,0.198403397208094,0.107189127850216,0.0456069522134466
0.00614045190950013,0.0491924294463218,0.0556619875092095,0.0310067905802137,0.0122569003596512,0.189805852865003,0.101802933856532,0.0428920598923892
0.00636560337581763,0.0490394725460415,0.0535848713318199,0.0285390874691994,0.0119386200920792,0.181384448284591,0.0967454974146401,0.0401662370134913
0.0066035042663838,0.04885796694623,0.0517902729750291,0.0261003120139562,0.0116664631180199,0.173286843798754,0.092112977996859,0.0374696198090985
0.00685222664101758,0.0486586587505658,0.0503085425451711,0.0237179526824063,0.0114477888920717,0.165644322302692,0.0879875218765196,0.0348387109877875
0.00710946942127338,0.0484511461852902,0.0491630268687918,0.0214169845080708,0.011288536350973,0.158570246581131,0.0844364417711502,0.0323060279639101
0.00737259300749889,0.0482436996088673,0.0483698418420641,0.0192196814066555,0.0111931592465431,0.152158909582651,0.0815116855893393,0.0298998373787512
0.00763866317842684,0.0480431080305014,0.0479377750843486,0.017145482078983,0.0111645896716108,0.146484783571083,0.0792495927844181,0.0276439748700662
0.00790450339504188,0.0478545545412656,0.0478683175801008,0.0152109080589647,0.011204229703058,0.14160216703765,0.077670932556423,0.0255577484169365
0.00816675429551757,0.0476815234415822,0.0481558214640575,0.0134295312811469,0.01131197072033,0.13754522156794,0.0767812136244849,0.0236559227132773
0.00842193894099049,0.0475257427470571,0.0487877795294527,0.0118119875172937,0.0114862395571635,0.13432838395666,0.0765712512216844,0.0219487807849668
0.00866653230838295,0.0473871664238637,0.0497452202812725,0.0103660312592287,0.0117240702185239,0.131947131772082,0.0770179732725745,0.0204422578521105
0.00889703355613462,0.0472640006256102,0.0510032103581743,0.00909662714375782,0.0120211994896577,0.130379073759969,0.0780854438699861,0.0191381416349045
0.00911003955978231,0.0471527771632967,0.0525314538324004,0.00800607286702045,0.0123721844239598,0.129585330590081,0.0797260782989614,0.0180343327729865
0.00930231801266277,0.0470484755073444,0.0542949753662999,0.0070941487205697,0.0127705394311517,0.129512167030227,0.0818820209236152,0.0171251584269832
0.00947087816504684,0.0469446920862211,0.0562548720609053,0.00635828931701665,0.0132088904578917,0.130092833882638,0.0844866557477294,0.0164017313129302
0.00961303732104153,0.0468338529388717,0.0583691176825202,0.00579377360387001,0.0136791434807798,0.131249576617099,0.0874662189629938,0.0158523456760639
0.00972648153735714,0.0467074632215534,0.060593402834197,0.00539392971623224,0.0141726641224832,0.132895766641321,0.0907414823186658,0.0154629013194048
0.00980931932105892,0.0465563848544473,0.0628819949804135,0.00515035145878688,0.0146804646337324,0.134938109057881,0.0942294744854948,0.0152173465894849
0.0098601272151427,0.0463711319917608,0.06518860199033,0.00505312318821453,0.0151933939544294,0.137278876584202,0.0978452046713008,0.0150981308578194
0.00987798600672141,0.0461421733553946,0.067467221432298,0.00509104969332574,0.0157023263457765,0.139818115329368,0.101503350959079,0.015086656623102
0.00986250632220322,0.0458602309882357,0.0696729567129895,0.00525188756109619,0.0161983442717229,0.142455768639385,0.105119877511736,0.0151637215005753
0.0098138428047,0.0455165664743978,0.07176278243089,0.0055225745821149,0.0166729117490864,0.145093671750384,0.108613549966056,0.0153099413435667
0.00973269667464275,0.0451032474358152,0.0736962449779106,0.00588945397617876,0.0171180351082438,0.147637380860719,0.111907325414679,0.0155061472611626
0.00962030689058244,0.0446133880521667,0.0754360886704986,0.00633849058536733,0.0175264087261919,0.149997811787349,0.114929599696498,0.0157337507493616
0.00947843014127889,0.0440413568733351,0.0769488001534569,0.00685547667227189,0.0178915434812998,0.152092670961922,0.117615297400909,0.0159750719181275
0.00930930977774668,0.0433829447176909,0.0782050634843859,0.00742622554383781,0.0182078753625241,0.153847662486922,0.119906788841997,0.0162136259271451
0.00911563399970465,0.0426354869457073,0.0791801178566195,0.00803675182393418,0.0184708514255961,0.155197454050408,0.121754618307277,0.0164343633013037
0.00890048416189997,0.0417979377681082,0.0798540125665919,0.00867343769135258,0.0186769907542712,0.156086389624429,0.123118033334191,0.0166238614321879
0.00866727464887682,0.0408708980087293,0.0802117591289916,0.00932318462331846,0.0188239192375797,0.156468948776076,0.123965314393481,0.0167704668573562
0.00841968606061023,0.039856600325242,0.0802433858533821,0.00997355009720286,0.0189103784038271,0.156309966391717,0.124273914443669,0.0168643900346541
0.0081615933622453,0.0387588564024239,0.0799439031903283,0.010612868578525,0.0189362097417585,0.155584637340939,0.124030424638349,0.0168977555993927
0.00789699048336296,0.0375829697142275,0.0793131876756169,0.0112303562470629,0.0189023164308941,0.154278334417691,0.123230383726278,0.016864611294467
0.00762991291822941,0.0363356169418275,0.0783557904601806,0.0118161992591917,0.0188106041420896,0.152386264966341,0.121877945697251,0.0167608985335156
0.00736436011638938,0.0350247017903091,0.0770806764419839,0.0123616257561505,0.0186639022515567,0.149912987196115,0.119985417956816,0.0165843877448428
0.00710421965473887,0.033659186222639,0.075500902260605,0.0128589621767341,0.0184658671053383,0.146871805848702,0.117572683475677,0.0163345823271628
0.00685319519997523,0.0322489053169708,0.0736332442517148,0.0133016746434879,0.018220869788847,0.143284068153889,0.114666523806853,0.0160125958693531
0.00661474006569187,0.0308043725529489,0.0714977891254026,0.0136843962029252,0.0179338717757955,0.139178382853422,0.111299863590211,0.0156210079158386
0.00639199781328475,0.0293365820965838,0.0691174994755127,0.014002940441263,0.0176102924611289,0.134589786134129,0.107510959559716,0.0151637037930286
0.00618775095540184,0.0278568135923834,0.0665177638110654,0.0142543015409619,0.017255872670051,0.129558878021117,0.103342557105723,0.0146457037750914
0.00600437843662527,0.026376443480613,0.0637259389635335,0.014436640567314,0.0168765377513725,0.124130950979208,0.0988410347200813,0.0140729862450229
0.00584382218823748,0.0249067655860276,0.0607708925375047,0.0145492579640969,0.016478263150944,0.118355128997679,0.0940555519647,0.0134523087979561
0.00570756271895523,0.0234588229770594,0.0576825534979646,0.01459255279483,0.016066944882079,0.112283530163074,0.0890372122866113,0.0127910306965807
0.00559660347565794,0.0220432528020427,0.0544914785388957,0.0145679698554097,0.0156482771603225,0.105970459673854,0.0838382497000039,0.0120969397176547
0.00551146363073315,0.0206701457973301,0.0512284400171677,0.0144779360175338,0.0152276394989905,0.0994716358195971,0.0785112478762896,0.0113780861212909
0.0054521790097808,0.0193489222016784,0.0479240392733807,0.014325786906536,0.0148099955943644,0.0928434499308026,0.0731084006267542,0.0106426261603099
0.00541831098191382,0.0180882256380123,0.0446083484130565,0.0141156846969956,0.0143998062154923,0.0861422622090787,0.0676808231224502,0.00989867720092431
0.00540896317391942,0.0168958359455027,0.0413105835991931,0.0138525278847996,0.0140009579428414,0.0794237373623378,0.0622779225588731,0.00915418614354936
0.00542280576052655,0.0157786011052076,0.038058812435187,0.01354185429476,0.0136167089751432,0.0727422255237691,0.0569468348265765,0.00841681239732975
0.00545810691126097,0.0147423877676286,0.03487969659196,0.0131897390068086,0.0132496525757179,0.0661501936413828,0.0517319307043553,0.00769382616345162
0.00551277089475307,0.0137920496437526,0.0317982693596468,0.0128026890783227,0.0129016982954121,0.0596977101334643,0.0466743927911922,0.00699202230685924
0.00558438234474725,0.0129314129681293,0.0288377473339821,0.0123875367692009,0.0125740708580929,0.0534319830865417,0.0418118635108311,0.00631764977331944
0.00567025615760543,0.0121632781268936,0.0260193758035199,0.0119513324946947,0.0122673263439762,0.047396951714702,0.0371781644125004,0.0056763563339218
0.0057674923350271,0.0114894361913401,0.023362307862961,0.0115012382690301,0.0119813848892375,0.0416329319476618,0.0328030867220698,0.00507314829857072
0.00587303485758423,0.0109106985602509,0.0208835172424324,0.0110444222633782,0.0117155785720741,0.0361763184850777,0.0287122520361008,0.00451236462964185
0.00598373347020508,0.0104269375217493,0.0185977441089357,0.0105879552906394,0.011468712724057,0.0310593462501414,0.0249270404480892,0.00399766463283473
0.00609640705484432,0.0100371355145628,0.0165174721289725,0.0101387103854993,0.0112391386736297,0.0263099133958185,0.0214645822394078,0.00353202823459314
0.00620790704612182,0.00973944108880811,0.0146529345513689,0.00970326695659231,0.0110248357184424,0.0219514664134841,0.0183378088419436,0.00311776779474327
0.00631517924791199,0.00953122975895556,0.0130121469723322,0.00928782104861864,0.0108234997676806,0.0180029465348551,0.0155555585309169,0.00275655036087171
0.00641532251601395,0.00940916787326788,0.0116009643443114,0.00889810300331966,0.0106326357576722,0.0144787957274517,0.0131227317364356,0.00244942917500432
0.00650564299167449,0.00936927747281516,0.0104231593885364,0.00853930347796355,0.0104496509484784,0.0113890197613262,0.0110404901272784,0.00219688308599804
0.0065837027136364,0.00940700033274486,0.00948051904019964,0.00821600864843265,0.0102719465479742,0.00873930486308392,0.00930649330439988,0.00199886234848557
0.00664736138845336,0.00951726002916529,0.00877295519118342,0.0079321454699146,0.010097005478827,0.00653118348558587,0.00791516712870739,0.00185483915591201
0.00669481006092218,0.00969452164157494,0.00829862570672307,0.0076909379073859,0.00992247418155512,0.00476224389363866,0.00685799802134506,0.00176386118306974
0.0067245956942516,0.00993284921062892,0.00805406153888837,0.00749487492615091,0.00974623621227757,0.0034263777114127,0.00612384766161642,0.00172460637233611
0.00673563622195897,0.0102259611265933,0.00803429617546321,0.00734569072357356,0.00956647556084455,0.00251405935539438,0.00569928233971543,0.00173543715698743
0.00672722621686541,0.0105672834697046,0.00823299470214778,0.007244357315604,0.0093817282644936,0.00201265132300773,0.00556891113615185,0.00179445233976807
0.00669903365505588,0.0109500014103758,0.00864258093163731,0.0071910892535515,0.00919092170195089,0.00190672948345394,0.00571572724636318,0.00189953502730861
0.00665108826115092,0.0113671091695027,0.00925436177697241,0.00718535990064005,0.00899340148548678,0.00217842269435986,0.00612144691955469,0.00204839535808856
0.00658376191884132,0.0118114595142214,0.0100586481861893,0.00722592839015681,0.00878894593083744,0.00280776115979432,0.00676684048718129,0.00223860717263237
0.00649774189421043,0.012275814095929,0.0110448719566313,0.00731087624127424,0.00857776803692996,0.00377302796272419,0.0076320500703736,0.00246763814429368
0.00639399804395038,0.0127528959901406,0.012201697784177,0.00743765264084476,0.00836050520398006,0.00505110828771256,0.00869688901849557,0.002732873109542
0.00627374551493733,0.0132354455380149,0.0135171297427288,0.00760312751666283,0.00813819749974688,0.00661783108385074,0.00994111878146379,0.00303163041623499
0.00613840450681633,0.0137162800696227,0.0149786110824968,0.00780365159252737,0.00791225582270148,0.00844829820158928,0.0113446993910209,0.00336117124889846
0.00598955851435428,0.0141883574659593,0.0165731159174241,0.00803512250742478,0.00768442153182998,0.0105171961824011,0.0128880098309843,0.00371870224286712
0.00582891233278935,0.0146448429823149,0.0182872310891817,0.00829305582193374,0.00745671899014488,0.0127990859359958,0.0145520347022531,0.00410137220001939
0.00565825107705853,0.0150791784119225,0.0201072267301841,0.0085726595286556,0.0072314023153934,0.0152686659051437,0.0163185142807608,0.0045062641952763
0.00547940141675229,0.01548515254805,0.0220191151859791,0.00886891065828892,0.00701089768933332,0.0179010052184323,0.0181700563829208,0.00493038464396255
0.00529419606173812,0.0158569719806296,0.0240086996786594,0.00917663269016416,0.00679774276262385,0.0206717445849736,0.0200902101082541,0.00537065092917331
0.00510444226563594,0.0161893314265169,0.0260616156082051,0.00949057266249347,0.00659452483110235,0.0235572638405679,0.022063503108592,0.00582387910964235
0.00491189483217817,0.0164774828367195,0.0281633679513131,0.00980547708426924,0.00640381943672345,0.026534815582011,0.0240754450826767,0.00628677319488808
0.00471823383386198,0.0167173022395338,0.0302993678937179,0.0101161659493298,0.0062281308378188,0.0295826241524183,0.02611250037975,0.00675591745650313
0.00452504699494466,0.016905352720458,0.0324549716156675,0.0104176043095514,0.00606983547433567,0.0326799492331166,0.0281620321960258,0.00722777315961783
0.00433381650783326,0.0170389415558568,0.0346155244913782,0.0107049709136099,0.00593112925532049,0.0358071142529348,0.0302122208301092,0.00769868091733511
0.00414590994061252,0.0171161696043916,0.0367664143599134,0.0109737232681834,0.00581397928401988,0.0389455016270586,0.0322519593623677,0.00816486961829902
0.00396257478410917,0.0171359715090465,0.0388931373066451,0.0112196581353305,0.00572008051266496,0.0420775188194653,0.0342707317254955,0.00862247259435589
0.00378493603234281,0.0170981457842922,0.0409813782776456,0.0114389662099902,0.00565081777413906,0.0451865404946606,0.0362584799127039,0.00906755139170597
0.00361399606918084,0.0170033741334319,0.0430171072259554,0.0116282797910052,0.00560723364645271,0.0482568319168416,0.0382054683983264,0.00949612715337255
0.00345063616002945,0.0168532291283398,0.0449866897566324,0.011784712660846,0.00559000261936899,0.051273457902237,0.040102154150061,0.00990421922420279
0.00329561900784259,0.0166501688522364,0.0468770094046234,0.0119058919499422,0.00559941198505496,0.0542221816521131,0.0419390697554942,0.0102878902634387
0.00314959202074587,0.0163975168636897,0.0486755972534237,0.0119899822672394,0.00563534971625773,0.0570893590054198,0.0437067259777352,0.0106432969376253
0.00301309103292877,0.0160994262332812,0.0503707641891452,0.0120357026557797,0.00569729937128727,0.0598618348893242,0.0453955393887448,0.0109667450505436
0.002886544191105,0.0157608272809673,0.0519517314642466,0.0120423368948072,0.00578434191322414,0.0625268486322227,0.0469957904441821,0.0112547476355937
0.00277027570693375,0.0153873596045013,0.0534087555129587,0.0120097373211025,0.00589516431141125,0.0650719533712977,0.0484976167470031,0.0115040842593046
0.00266450930285175,0.0149852895595214,0.0547332421827479,0.0119383218194683,0.00602807485831538,0.0674849538035009,0.0498910447629703,0.0117118598168824
0.0025693713964863,0.0145614142914546,0.055917844138153,0.0118290632346662,0.00618102520509801,0.0697538666116992,0.0511660610511359,0.0118755613684685
0.0024848942658841,0.0141229532162582,0.0569565349956738,0.0116834704175766,0.00635163912698597,0.0718669077540796,0.0523127216822079,0.0119931117456325
0.00241101952947113,0.0136774281994507,0.0578446555697361,0.0115035604721347,0.00653724793696752,0.073812509238592,0.0533212961024055,0.0120629185199166
0.0023476022414201,0.0132325345599903,0.0585789306944894,0.0112918223914663,0.00673493226493429,0.0755793658596382,0.0541824397828239,0.0120839167425908
0.00229441580609034,0.0127960059393115,0.0591574580451157,0.0110511729061722,0.00694156962382301,0.0771565114921606,0.0548873892606467,0.012055604094201
0.00225115782459391,0.0123754765612257,0.0595796717653213,0.0107849057118029,0.00715388684971739,0.0785334249372756,0.0554281734483936,0.0119780676953354
0.00221745690388154,0.0119783442942316,0.0598462829633095,0.0104966351440921,0.00736851621432263,0.079700165657503,0.0557978354257841,0.0118520024643664
0.00219288036796557,0.0116116375486096,0.0599591979804635,0.0101902351047923,0.00758205382400819,0.080647538704076,0.0559906582615235,0.0116787211969713
0.00217694272446901,0.0112818888312901,0.0599214159895147,0.00986977404323047,0.00779111886786397,0.0813672854054433,0.0560023867477772,0.0114601563766023
0.00216911468897681,0.0109950177053679,0.0597369099311459,0.00953944710324187,0.00799241235863258,0.0818522934593935,0.0558304359892053,0.0111988534871346
0.00216883257754709,0.0107562257128318,0.0594104976784181,0.00920350692231369,0.00818277417803063,0.0820968186138789,0.0554740787490669,0.0108979557179445
0.00217550793526696,0.0105699053970274,0.0589477122107513,0.00886619479043484,0.00835923738855407,0.0820967102327123,0.0549346058195205,0.010561180389258
0.00218853733124051,0.0104395649634831,0.058354679583842,0.00853167380089789,0.00851907877077099,0.0818496340668046,0.0542154562848413,0.0101927879059173
0.00220731226090299,0.0103677695044608,0.0576380115994309,0.00820396530965212,0.00865986434443418,0.0813552867004579,0.0533223161913862,0.00979754430585329
0.00223122904692781,0.0103560992393409,0.0568047174460092,0.00788688973392836,0.00877948845976174,0.0806155964837863,0.0522631839900723,0.00938067836197571
0.00225969858959712,0.0104051249558686,0.0558621363894689,0.00758401261958997,0.00887620517271134,0.0796349043794608,0.0510483995762982,0.00894783385039132
0.002292155819869,0.0105144007131429,0.0548178919888668,0.00729859690575459,0.00894865104908071,0.0784201154288913,0.0496906327814263,0.00850501735741742
0.00232806870304363,0.0106824737307221,0.053679867086055,0.00703356227655584,0.00899585909704759,0.0769808099703336,0.0482048280268553,0.00805854200232494
0.00236694658927217,0.0109069110914794,0.0524561979312649,0.00679145231866055,0.00901726396201095,0.0753293050262782,0.0466081041119184,0.00761496759421645
0.00240834765881529,0.0111843424605282,0.0511552853184517,0.00657440989028214,0.00901269862349776,0.0734806598304262,0.0449196107302033,0.00718103787487395
0.00245188521686712,0.0115105177026257,0.0497858204747161,0.00638416075336474,0.00898238267651076,0.0714526236669912,0.0431603452541054,0.00676361551564869
0.00249723261494167,0.0118803781927174,0.0483568234366934,0.00622200522711529,0.00892690226956743,0.0692655272393062,0.0413529338223268,0.00636961537672504
0.00254412655012312,0.0122881406853608,0.0468776913423272,0.00608881739511284,0.00884718213425211,0.0669421192705443,0.0395213797397828,0.00600593624814939
0.00259236844898529,0.0127273926772901,0.0453582530189837,0.0059850512240158,0.00874445071737057,0.0645073483867376,0.0376907809158341,0.00567939106504223
0.00264182368164959,0.0131911980772664,0.0438088243945786,0.00591075283815254,0.00862019992719886,0.0619880894387813,0.0358870179986379,0.00539663556418733
0.00269241849747733,0.013672211615522,0.0422402575648094,0.0058655781611266,0.00847614118342378,0.059412815197068,0.0341364161221347,0.00516409549402789
0.00274413476728385,0.0141628000212991,0.0406639759676872,0.00584881518171246,0.00831415929977244,0.0568112180361938,0.0324653850469064,0.00498789268417977
0.00279700277430742,0.0146551678701119,0.0390919891857325,0.00585941017433643,0.00813626554020369,0.0542137900872134,0.030900044076369,0.00487377037832095
0.00285109234820284,0.0151414861403016,0.0375368828905869,0.00589599720116028,0.00794455119887061,0.0516513727350261,0.0294658387270573,0.0048270181694821
0.00290650259149162,0.0156140216851088,0.0360117816233185,0.00595693008974813,0.00774114315183428,0.0491546863698394,0.0281871555358719,0.00485239681280462
0.00296335042331493,0.0160652657291844,0.0345302836801523,0.00604031597394092,0.00752816281956275,0.0467538497726306,0.0270869404878121,0.0049540633359702
0.0030217582405147,0.0164880591103854,0.033106367698855,0.00614404960826159,0.00730768976162554,0.044477897595332,0.0261863264063257,0.00513549718848388
0.00308184113832575,0.0168757117900879,0.0317542698217113,0.00626584800974223,0.00708173076193992,0.042354304871614,0.0255042752237736,0.00539942847872357
0.00314369426920415,0.0172221144687236,0.0304883301454309,0.00640328539766498,0.00685219488402183,0.0404085285182487,0.0250572417037976,0.00574776946383598
0.00320738098029177,0.0175218406820667,0.0293228087060359,0.00655382872052082,0.00662087460468062,0.0386635763283407,0.0248588653289557,0.00618155041614892
0.00327292232307378,0.0177702379826304,0.0282716740037331,0.00671487415496606,0.00638943281257148,0.0371396133876329,0.0249196964524952,0.00670086105640505
0.00334028841120929,0.0179635065530157,0.0273483697951181,0.00688378481193539,0.006159395276571,0.0358536142764041,0.025246961860211,0.00730479902702982
0.00340939199052677,0.0180987634639876,0.0265655673587862,0.00705792961182226,0.00593214812119764,0.0348190677598435,0.0258443742504558,0.0079914272330677
0.00348008448472545,0.018174091264165,0.0259349104110377,0.00723472303330825,0.00570893975925257,0.0340457395229462,0.0267119898657556,0.0087577420960451
0.00355215465106527,0.0181885703141279,0.0254667595392574,0.00741166521103207,0.00549088655130843,0.033539497645202,0.0278461182660136,0.00959965471362421
0.00362532982751729,0.0181422945972153,0.025169943369912,0.00758638163256669,0.00527898133224746,0.0333022045298699,0.0292392877405593,0.0105119866834255
0.00369927962804424,0.0180363705028268,0.0250515241516036,0.00775666149025214,0.00507410402527551,0.0333316776623586,0.0308802689856026,0.0114884821561206
0.0037736218542404,0.0178728980233445,0.0251165852276979,0.00792049364032741,0.00487703379723784,0.0336217198579764,0.032754158419735,0.0125218375657294
0.00384793029429463,0.0176549344275797,0.0253680469581734,0.00807609916462015,0.00468846243963646,0.0341622178191681,0.0348425209666401,0.013603750312046
0.00392174394355418,0.0173864413587024,0.0258065165703109,0.00822195971910463,0.004509008758992,0.0349393061508142,0.0371235905082826,0.0147249873132887
0.00399457706756806,0.0170722167651564,0.0264301763210536,0.00835684110813509,0.00433923368061849,0.0359355925855689,0.0395725247255125,0.0158754737854098
0.0040659295314095,0.0167178128909522,0.0272347131997946,0.00847981169012191,0.00417965557506364,0.0371304390928581,0.0421617098384253,0.0170444019447383
0.00413529694604722,0.0163294414006335,0.0282132924778194,0.00859025515841338,0.00403076513665664,0.0385002928439721,0.0448611099331341,0.0182203586216235
0.00420218036930227,0.0159138671720476,0.0293565767309498,0.00868787705468574,0.00389303904561278,0.0400190606866483,0.0476386551557458,0.01939147000342
0.00426609544902346,0.0154782930835232,0.0306527911267559,0.0087727044106343,0.00376695163713243,0.0416585207141548,0.050460663001148,0.0205455610436767
0.00432658092003584,0.0150302386874504,0.032087834599004,0.00884507830649182,0.0036529838906304,0.0433887643844953,0.0532922870108171,0.0216703266536612
0.00438320626947705,0.0145774156368801,0.0336454353749421,0.00890563969336094,0.00355162923558494,0.0451786620026286,0.0560979870445774,0.0227535116176767
0.0044355783175764,0.0141276022593679,0.0353073482805812,0.00895530924118569,0.00346339590380145,0.0469963430046303,0.0588420144086699,0.023783096047539
0.00448334653035219,0.0136885192938754,0.0370535900260364,0.00899526202598224,0.00338880575339115,0.0488096811437657,0.0614889032911091,0.0247474828111134
0.0045262070498972,0.0132677087429152,0.0388627075419322,0.00902689773613543,0.00332838955534469,0.0505867745383193,0.0640039580860346,0.0256356826197567
0.00456390561051259,0.0128724178680264,0.040712074026031,0.00905180714872678,0.00328267868850033,0.0522964118557854,0.0663537256864863,0.0264374918263436
0.00459623963109663,0.0125094903522474,0.0425782075162733,0.00907173589516051,0.00325219320789721,0.0539085181251654,0.0685064431106562,0.0271436580693651
0.00462305979315105,0.0121852664133876,0.0444371067001809,0.0090885466914068,0.00323742643594805,0.05539457583894,0.0704324534266797,0.0277460297327087
0.00464427131774445,0.0119054931622616,0.046264597721797,0.00910418107527995,0.00323882651200033,0.0567280180716849,0.0721045858935899,0.0282376863802994
0.00465983496606844,0.0116752460021239,0.0480366847542494,0.00912062149122568,0.00325677560745678,0.0578845896560131,0.0734984983023463,0.0286130482764927
0.0046697675890339,0.0114988615938712,0.0497298973301895,0.00913985455099544,0.00329156766930749,0.0588426708697857,0.0745929795342864,0.0288679632436024
0.00467414194131102,0.0113798827837975,0.0513216288466695,0.00916383636903442,0.00334338555277505,0.0595835575869738,0.0753702084582187,0.0289997684879668
0.00467308549322908,0.0113210156654443,0.0527904623816885,0.00919446078523356,0.00341227831777234,0.0600916931612764,0.0758159637740722,0.0290073247254085
0.00466677810112499,0.011324098567623,0.0541164809478613,0.00923353099390502,0.00349813942057832,0.0603548497681822,0.0759197802271003,0.0288910207728539
0.00465544857057879,0.0113900825236685,0.0552815588313808,0.00928273482006065,0.00360068655076279,0.0603642594149705,0.075675049503943,0.0286527485048772
0.00463937027421116,0.0115190228702361,0.0562696289544147,0.00934362377963817,0.00371944387937632,0.0601146961966322,0.0750790678313541,0.0282958499669275
0.00461885597992217,0.0117100818717661,0.0570669198120101,0.00941759605912657,0.00385372743211579,0.0596045108464108,0.07413303544078,0.0278250396819596
0.00459425191927482,0.0119615423736654,0.0576621557050909,0.00950588353407227,0.00400263417609042,0.0588356169056539,0.0728420144437041,0.0272463052601919
0.00456593103734251,0.0122708322693684,0.0580467156596433,0.00960954283666879,0.00416503528829699,0.0578134271768573,0.0712148506332237,0.0265667887603351
0.00453428542159555,0.0126345591763457,0.05821474880757,0.00972945023640592,0.00433957399155832,0.056546740572608,0.0692640620175383,0.0257946510628029
0.0044997180655046,0.0130485545007779,0.0581632459195642,0.00986629970959825,0.00452466824104138,0.0550475821601883,0.0670056946769187,0.0249389222056494
0.00446263428552031,0.013507926122655,0.0578920670251062,0.0100206031649958,0.0047185183949532,0.0533310015670456,0.0644591460688309,0.0240093417035444
0.00442343318460114,0.0140071191351482,0.0574039238114678,0.0101926915839278,0.0049191198885008,0.0514148355457373,0.0616469568802853,0.023016193699695
0.00438249948853278,0.0145399842897049,0.0567043150734457,0.0103827159339775,0.00512428090683325,0.0493194393304486,0.0585945742155998,0.0219701419694515
0.00434019593347917,0.015099853925866,0.0558014152927033,0.0105906470768689,0.00533164507169401,0.0470673904442004,0.055330090573834,0.0208820691965588
0.00429685630097628,0.015679625116276,0.054705919425781,0.0108162743435098,0.00553871913668137,0.0446831693000673,0.0518839640274658,0.019762923909563
0.00425277922929984,0.0162718494531264,0.0534308492005443,0.0110592027381306,0.00574290557085656,0.0421928226439567,0.0482887246947747,0.0186235775489147
0.00420822302084163,0.016868828330186,0.0519913262964424,0.0113188486725586,0.0059415396895157,0.0396236173257893,0.0445786708854663,0.017474693524082
0.00416340173755349,0.01746271196867,0.0504043167388157,0.0115944339246419,0.00613193070444784,0.0370036921136061,0.0407895562409077,0.0163266097109123
0.00411848287073485,0.0180456001431125,0.0486883510317547,0.0118849776225366,0.00631140578092863,0.0343617141147897,0.0369582682594221,0.0151892355360044
0.00407358676012472,0.0186096427005015,0.0468632261283166,0.0121892865780702,0.00647735595626848,0.0317265447846175,0.0331224990273871,0.014071964543391
0.0040287877563458,0.0191471384298505,0.0449496966731864,0.0125059449837453,0.0066272826360698,0.0291269195341025,0.0293204101162193,0.0129836030822584
0.00398411696267961,0.0196506313992426,0.0429691627381606,0.0128333050389658,0.00675884337381239,0.0265911445496313,0.0255902946905371,0.0119323154113267
0.00393956630666658,0.0201130042232274,0.0409433598936424,0.0131694802369294,0.0068698957551311,0.0241468140501678,0.021970240326581,0.0109255850071462
0.00389509366996584,0.0205275675696561,0.0388940565611753,0.0135123427664217,0.00695853838579485,0.0218205504320026,0.018497795613928,0.00997019121808519
0.00385062882618289,0.0208881446254158,0.0368427636013852,0.0138595260293237,0.007023148096466,0.0196377685164777,0.0152096425527019,0.00907219982984627
0.00380607998068695,0.0211891488187141,0.0348104612136742,0.0142084329676539,0.00706241241103942,0.0176224636625607,0.0121412758007088,0.00823696576131951
0.00376134074603989,0.0214256532708049,0.0328173477144045,0.0145562507383286,0.00707535617095336,0.0157970222269139,0.00932668945136243,0.00746914596795261
0.00371629738158971,0.0215934510894104,0.0308826134301121,0.0148999721278647,0.00706136125709273,0.0141820520826733,0.00679807212813102,0.00677272061688497
0.00367083603990231,0.0216891063513521,0.0290242414117751,0.0152364238843795,0.00702017870867877,0.0127962307456556,0.00458551148904395,0.00615102065270723
0.00362484963298673,0.0217099960685436,0.0272588357072413,0.0155623018781798,0.0069519330569068,0.0116561689167779,0.00271670950386457,0.00560675994206119
0.00357824387856829,0.0216543433008795,0.0256014775274714,0.015874212754574,0.00685711912734731,0.0107762875381994,0.0012167099375063,0.00514207020296338
0.00353094217273204,0.0215212409024634,0.0240656093617265,0.0161687215609036,0.00673659171285205,0.0101687064270003,0.000107639369689111,0.00475853682227042
0.00348288912354308,0.0213106647527199,0.0226629464818602,0.0164424046808564,0.00659154842665918,0.00984314238571297,-0.000591536942683992,0.00445723349892942
0.00343405279153233,0.0210234752970999,0.0214034143156091,0.0166919071642257,0.00642350605485992,0.00980681503984373,-0.000865242836496845,0.00423875366313466
0.0033844258292493,0.0206614067960865,0.020295109530693,0.0169140030511451,0.00623427099900933,0.0100643597119673,-0.000701500769149825,0.00410323695672971
0.00333402572925976,0.0202270445205843,0.0193442827370225,0.0171056566553558,0.00602590477666973,0.0106177480802483,-9.21208927995372e-05,0.00405038964064877
0.00328289430253417,0.0197237907969684,0.0185553410640659,0.0172640824109137,0.00580068580502259,0.0114662187263911,0.000967132754188687,0.00407949842230057
0.00323109644640857,0.0191558208976581,0.0179308688639875,0.0173868010465481,0.00556106869533652,0.0126062205593118,0.00247640149223487,0.00418943763832264
0.003178718297835,0.0185280292663497,0.0174716643724346,0.0174716904350487,0.00530964211485265,0.0140313723201438,0.00443161931931473,0.00437866988425299
0.00312586496724108,0.0178459660970525,0.0171767900999345,0.0175170302052467,0.0050490861538109,0.015732441167547,0.00682443100115163,0.00464524028915635
0.00307265814749049,0.0171157644189466,0.017043635432244,0.0175215397671776,0.00478213012631452,0.0176973432132045,0.00964214365831509,0.00498676499199855
0.00301923394302314,0.0163440584691342,0.0170679909750134,0.0174844094822774,0.0045115117277204,0.0199111689770769,0.0128677145958948,0.00540041495751962
0.00296574124550014,0.0155378948681642,0.0172441349581996,0.0174053242748888,0.0042399383703961,0.0223562368821869,0.0164797781837814,0.00588289685535626
0.00291234090104704,0.0147046385647483,0.0175649321018264,0.0172844785382,0.00397005132540012,0.0250121779242874,0.0204527147325171,0.00643043310842888
0.00285920579398397,0.0138518754397081,0.0180219449306715,0.0171225812646195,0.00370439311371418,0.0278560544425584,0.024756764497507,0.00703874329117137
0.00280652183384383,0.0129873129670404,0.018605557260029,0.0169208509180498,0.00344537846626914,0.0308625154913629,0.0293581900906617,0.00770302893042805
0.00275448968331516,0.0121186799476913,0.0193051096059191,0.0166810003772184,0.00319526905101726,0.0340039907358525,0.0342194905396713,0.00841796365399412
0.00270332691872946,0.0112536263724148,0.0201090462269881,0.0164052129933891,0.0029561520118559,0.0372509241177067,0.0392996698499937,0.0091776905821143
0.0026532702171953,0.0103996247870096,0.0210050730541757,0.0160961111467604,0.00272992224195692,0.0405720477345217,0.0445545620475819,0.00997582874890162
0.0026045771534307,0.00956387484398094,0.0219803248825998,0.0157567184948915,0.00251826827988152,0.0439346953237461,0.0499372132402553,0.0108054900734003
0.00255752726541023,0.00875321279286582,0.0230215391752981,0.0153904165445346,0.00232266173056478,0.0473051532666571,0.0553983193983393,0.011659307967962
0.00251242217915564,0.00797402740602974,0.0241152330911216,0.0150008957675904,0.00214435009903924,0.0506490451191697,0.060886716687641,0.0125294781475266
0.00246958471384315,0.0072321834539896,0.0252478802173987,0.0145921015243589,0.00198435285329875,0.053931743744727,0.0663499195350643,0.0134078116713491
0.0024293569563294,0.00653295360796633,0.0264060839576757,0.0141681754438681,0.00184346046830361,0.0571188036710148,0.0717347002839508,0.0142857998227148
0.00239209726920201,0.00588095956031463,0.0275767452268408,0.0137333934044495,0.00172223620637331,0.060176405545169,0.0769877033790958,0.0151546901872354
0.00235817614476326,0.00528012306516991,0.0287472224529509,0.0132921016347282,0.00162102043756749,0.06307180455536,0.0820560865158684,0.0160055731853639
0.00232797084160489,0.00473362740590466,0.0299054814819292,0.0128486525525818,0.00153993734848509,0.0657737752457765,0.0868881809346907,0.0168294782144681
0.00230185885013919,0.00424388951601996,0.0310402323269238,0.0124073416979069,0.00147890389467946,0.0682530457929493,0.0914341626073107,0.0176174782872739
0.00228021037144008,0.00381254273685499,0.0321410498006231,0.0119723465835767,0.00143764081123803,0.0704827147279608,0.0956467247134741,0.0183608015009467
0.00226338009390715,0.00344043002494234,0.0331984761528808,0.0115476678180964,0.00141568544059383,0.0724386415903489,0.0994817389735148,0.0190509469623165
0.00225169856730591,0.00312760726093303,0.0342041054643116,0.0111370727135164,0.00141240610822882,0.0740998009236639,0.102898890121618,0.0196798022716569
0.00224546341655577,0.00287335613504983,0.0351506510939089,0.0107440417823497,0.00142701776477296,0.075448588609547,0.105862266436591,0.0202397595220503
0.00224493059036151,0.00267620596213083,0.036031998363121,0.0103717188981567,0.0014585985838082,0.0764710717121732,0.108340890824317,0.0207238269958136
0.00225030584415352,0.00253396376839928,0.0368432444913287,0.0100228662252707,0.00150610717410473,0.077157176914279,0.110309180787654,0.0211257342195758
0.00226173667312047,0.00244375205958595,0.0375807266620278,0.00969982508704817,0.00156840007111984,0.0775008165620638,0.111747330049414,0.0214400285549889
0.00227930488494394,0.00240205375428757,0.0382420378335614,0.00940448369522441,0.00164424919289538,0.077499953390064,0.112641607379978,0.0216621617267872
0.00230301993575904,0.00240476378010744,0.0388260293043084,0.00913825241141571,0.00173235893677057,0.0771566042081022,0.1129845675344,0.0217885643620755
0.00233281311544467,0.00244724677694588,0.0393327991342348,0.00890204720338949,0.00183138258809262,0.0764767810618741,0.112775166448022,0.0218167060578634
0.00236853268245244,0.00252440032260644,0.039763666028749,0.00869628205524281,0.00193993777923285,0.0754703686876368,0.112018772481634,0.0217451385319829
0.00240994006191199,0.002630723157525,0.0401211289368683,0.00852087104011872,0.00205662086956662,0.0741509399158285,0.110727069543674,0.0215735203306945
0.00245670718252349,0.00276038800543388,0.040408813198044,0.00837524047614602,0.00218002024916676,0.0725355145618727,0.108917854632102,0.0213026229756222
0.00250841497046337,0.00290731869539073,0.0406314043975264,0.00825835121520965,0.00230872863270926,0.0706442705373693,0.106614738747644,0.0209343196928381
0.00256455302317922,0.00306527132849333,0.0407945709078166,0.00816873077993874,0.00244135438999309,0.0685002170199956,0.103846763394028,0.0204715583860904
0.00262452055839684,0.00322791917537839,0.0409048751360071,0.00810451470662766,0.00257653193161458,0.0661288381279658,0.100647943791331,0.0199183201930579
0.00268762881587879,0.00338894086645602,0.0409696719826081,0.00806349610630212,0.00271293120233242,0.0635577133787335,0.097056747077781,0.019279564551535
0.00275310511687529,0.00354211129863566,0.0409969920681236,0.00804318225311928,0.00284926641107655,0.0608161207046317,0.0931155133193173,0.018561161906588
0.00282009873137529,0.00368139454383248,0.0409954077875,0.00804085691592833,0.00298430418670072,0.0579346291990831,0.0888698297150022,0.0177698158847064
0.00288768862080108,0.00380103789506869,0.0409738820924134,0.00805364700400894,0.00311687133953431,0.0549446907492764,0.0843678720298972,0.0169129774922086
0.00295489308919678,0.00389566603027488,0.0409416023105987,0.00807859184195973,0.00324586232750791,0.0518782407353089,0.0796597298506441,0.0159987542767063
0.00302068138748686,0.00396037413614259,0.0409078032142004,0.0081127132257848,0.00337024644796593,0.0487673171300549,0.0747967322447149,0.0150358172184853
0.00308398732321168,0.00399081874375378,0.040881584000999,0.00815308452719673,0.00348907475733515,0.0456437053513454,0.0698307877586758,0.0140333074848151
0.00314372488242122,0.00398330499854711,0.0408717229780577,0.00819689743259591,0.00360148672313306,0.0425386147220625,0.0648137493416409,0.0130007445004672
0.00319880576208362,0.00393486910039232,0.0408864931130776,0.00824152521782416,0.00370671656466101,0.0394823915345303,0.059796812520686,0.0119479363633207
0.00324815859857383,0.00384335464663131,0.0409334822378985,0.00828458155827813,0.00380409913337471,0.0365042726399037,0.0548299538413891,0.0108848934213546
0.00329074960365361,0.00370748153244865,0.0410194230594775,0.0083239737143216,0.00389307511863899,0.0336321817376339,0.0499614155061854,0.00982174569773629
0.00332560425379962,0.00352690596346327,0.0411500393363049,0.00835794879080359,0.00397319539653031,0.0308925683366618,0.0452372409474382,0.00876866471563752
0.00335182957509912,0.00330227016594605,0.0413299148634402,0.00838513191492207,0.00404412442404053,0.0283102872513909,0.0407008647100148,0.00773579007886436
0.00336863644208885,0.00303524057859239,0.0415623909597371,0.00840455557779674,0.00410564264036302,0.0259085149101748,0.03639275848262,0.00673316086873127
0.00337536124448644,0.00272853357760869,0.0418494964400307,0.00841567986699658,0.00415764780379244,0.0237086976966791,0.0323501333046526,0.00577065151962037
0.00337148629603239,0.00238592798105888,0.0421919125341531,0.00841840368942695,0.00420015507321628,0.0217305266314686,0.0286066959083454,0.00485791146150853
0.00335665841468579,0.00201226362197042,0.0425889741846308,0.00841306719084012,0.00423329556405017,0.0199919316652677,0.0251924554174542,0.0040043076426193
0.00333070511584447,0.00161342529594653,0.0430387083464791,0.00840044540541568,0.00425731317409159,0.0185090881874476,0.0221335758332936,0.00321886908893535
0.0032936477910349,0.00119631155914016,0.0435379090367681,0.00838173298399017,0.00427255966339903,0.0172964286593812,0.0194522698216054,0.00251023280925751
0.00324571118312125,0.000768788162580356,0.0440822476969098,0.0083585199403177,0.00427948818974351,0.0163666533634718,0.0171667297504865,0.00188659047088015
0.00318732854319493,0.000339626224928779,0.0446664157404807,0.00833275871976047,0.0042786456292643,0.0157307353693452,0.0152910921122514,0.00135563527012436
0.00311914206891335,-8.15745511139279e-05,0.0452842942388062,0.00830672336145453,0.00427066398225635,0.0153979152701534,0.0138354311195547,0.000924508409388858
0.00304199849048946,-0.000484477227353762,0.0459291443971854,0.00828296187907385,0.00425625107637825,0.0153756813336608,0.0128057770031914,0.000599744741734334
0.00295693986991406,-0.000858113048442014,0.0465938121699029,0.00826424305023933,0.00423618079432606,0.015669731614949,0.0122041551258452,0.000387217451579026
0.0028651897302521,-0.00119100023766815,0.047270940525649,0.00825349862473772,0.00421128315332351,0.0162839166031536,0.0120286433403745,0.000292081983171522
0.00276813461432215,-0.00147127524889876,0.0479531825303372,0.00825376186749201,0.00418243461989206,0.0172201634039344,0.0122734463962373,0.000318719689604133
0.00266730126411372,-0.00168683536943054,0.048633407214741,0.00826810352230577,0.00415054896997208,0.018478384341805,0.0129289869878008,0.000470681807308486
0.00256432984118166,-0.00182549143863906,0.049304889499838,0.00829956656232053,0.00411656886110979,0.0200563736133186,0.0139820131823124,0.000750634434041504
0.00246094386706518,-0.00187512931251469,0.0499614765605884,0.00835110122881161,0.00408145817233364,0.0219496957522643,0.015415722242045,0.00116030530189116
0.00235891773697869,-0.00182387854044217,0.0505977254379797,0.00842550172635795,0.00404619506185625,0.0241515703782713,0.0172099017834164,0.00170043329680049
0.0022600426924663,-0.001660286559831,0.0512090089389429,0.00852534573165384,0.00401176555038167,0.0266527592465016,0.019341090481568,0.00237072185024698
0.00216609207471111,-0.0013734965608991,0.0517915874443406,0.00865293782828793,0.00397915734463625,0.0294414634065565,0.0217827615634506,0.0031697975041647
0.00207878662199166,-0.000953426999939677,0.0523426435792782,0.0088102580425808,0.00394935365292338,0.0325032396310336,0.0245055326929229,0.00409517512491994
0.00199976054725857,-0.000390950553538493,0.0528602772664209,0.00899891663805904,0.00392332686218693,0.035820945710415,0.0274774054486801,0.0051432314030583
0.00193052909882663,0.0003219298525556,0.0533434614632323,0.00922011611078057,0.00390203202751119,0.0393747235860616,0.0306640368321146,0.0063091883878519
0.00187245824883027,0.00119191042326675,0.0537919624517711,0.00947462093180769,0.00388640008837236,0.0431420278952433,0.0340290444545716,0.0075871088205978
0.00182673707932599,0.00222422385694213,0.0542062308453913,0.00976273513908251,0.0038773306517342,0.0470977057923981,0.0375343460706541,0.00896990490825996
0.00179435336510962,0.00342248732387763,0.0545872694417271,0.0100842875023238,0.0038756842353488,0.0512141319710448,0.0411405327883188,0.0104493619196538
0.00177607279654665,0.00478856371939849,0.0549364831981415,0.0104386237256639,0.00388227406438653,0.0554614005935074,0.0448072738499483,0.0120161776370243
0.00177242223952919,0.00632243888196723,0.0552555171105842,0.0108246050649403,0.00389785775957437,0.0598075734715144,0.0484937495133323,0.0136600182909089
0.00178367737988788,0.00802211751467209,0.0555460893381704,0.0112406128375084,0.0039231294278132,0.0642189812921957,0.0521591070077164,0.0153695911577318
0.00180985503844129,0.00988354056681818,0.055809827831121,0.011684558514149,0.0039587126880196,0.0686605719818626,0.0557629326039323,0.0171327335452611
0.00185071037170952,0.011900526743457,0.0560481179003872,0.012153899218898,0.00400515505338367,0.0730962980438028,0.0592657310599572,0.0189365174966411
0.00190573909573456,0.014064740555209,0.0562619665066882,0.0126456583292537,0.00406292396472243,0.0774895335259197,0.0626294028740492,0.0207673692677395
0.00197418478455589,0.0163656889548767,0.0564518881423752,0.0131564505659474,0.00413240469668701,0.0818035113393211,0.0658177101000681,0.0226112024852963
0.00205505120070285,0.0187907482696511,0.0566178168155417,0.0136825109052986,0.00421390031186421,0.0860017726829724,0.0687967225973093,0.0244535638112009
0.00214711952876512,0.021325222889123,0.0567590476082744,0.0142197270014623,0.00430763378583709,0.0900486216541433,0.0715352377373766,0.0262797897774697
0.0022489703162588,0.0239524369847097,0.0568742092991976,0.0147636753628754,0.0044137523670644,0.0939095787469842,0.0740051667406619,0.0280751730099376
0.0023590098656357,0.026653860345359,0.056961267918684,0.0153096619600964,0.00453233418231175,0.0975518258117323,0.0761818792977084,0.0298251351998908
0.00247550074353469,0.029409269109511,0.0570175607002983,0.015852767972781,0.00466339705704245,0.10094463209863,0.0780444961816214,0.0315154032267332
0.00259659596705869,0.0321969416126736,0.0570398600877509,0.0163879009711283,0.00480690947603119,0.104059748418407,0.0795761196485133,0.0331321843822608
0.00272037630448803,0.0349938886140425,0.057024467154167,0.0169098513232441,0.00496280352978779,0.106871756533472,0.080763994346741,0.0346623369355826
0.00284489000129258,0.037776115855187,0.0569673322675004,0.0174133533804029,0.00513098954289888,0.109358363899493,0.0815995962052621,0.0360935331284256
0.00296819413095563,0.0405189156213644,0.0568641986816461,0.0178931510147081,0.00531137186768757,0.111500638746595,0.0820786515157675,0.0374144126615992
0.00308839670786887,0.0431971830830276,0.056710763450057,0.018344067186901,0.0055038651278542,0.113283185566124,0.0822010911286698,0.0386147252204106
0.00320369868694112,0.0457857527576463,0.0565028501286951,0.01876107718113,0.00570841007879983,0.114694264457318,0.0819709442062511,0.0396854600950205
0.00331243496445169,0.0482597503311638,0.056236588611288,0.019139384754293,0.00592498822149892,0.115725857862302,0.0813961740358289,0.0406189598398386
0.00341311343381326,0.050594955076566,0.0559085983421403,0.0194744997762688,0.00615363435001876,0.116373685116374,0.0804884583252213,0.0414090144391122
0.00350445107986676,0.0527681678756544,0.0555161713218173,0.0197623154430446,0.00639444630718522,0.116637162326718,0.0792629188827416,0.0420509332035768
0.0035854061333623,0.0547575790009575,0.0550574502047752,0.0199991831014519,0.00664759133372891,0.116519305462918,0.0777378091325994,0.0425415932159775
0.00365520547337907,0.0565431280881442,0.0545315947366797,0.0201819829428985,0.00691330846813504,0.116026578084952,0.0759341708737817,0.042879464829554
0.00371336666453797,0.0581068466683548,0.0539389283864881,0.0203081889000379,0.00719190641311252,0.115168690225746,0.0738754729905605,0.0430646157636083
0.0037597141190368,0.0594331725394826,0.0532810573810253,0.0203759257023749,0.0074837561034927,0.113958359695878,0.0715872441258168,0.043098695188875
0.00379438885233854,0.0605092258525638,0.0525609562113392,0.020384015505619,0.00778927705592238,0.112411049733514,0.0690967088256936,0.0429848978898521
0.003817851327536,0.061325038877531,0.0517830161781989,0.0203320115232722,0.00810891669702137,0.110544696257979,0.066432433044853,0.0427279072341271
0.0038308770969628,0.0618737341633786,0.0509530555487234,0.0202202168240928,0.00844312231460212,0.108379434132818,0.0636239814443011,0.0423338154381606
0.00383454528726003,0.0621516479141712,0.0500782903396274,0.0200496874762654,0.00879230593252073,0.105937327162917,0.0607015866269211,0.0418100206239104
0.00383022027864944,0.0621583956072993,0.0491672637164146,0.0198222198813652,0.00915680302980014,0.103242103421717,0.0576958295574839,0.0411651019287023
0.00381952706113433,0.0618968756716835,0.0482297316191209,0.0195403220688435,0.009536826334689,0.100318896129963,0.0546373307323859,0.0404086757589126
0.00380432073092055,0.0613732071621979,0.0472765041168565,0.0192071684578848,0.0099324158814889,0.0971939900613138,0.0515564527905368,0.0395512373857085
0.00378665063204044,0.0605966002474946,0.0463192455272387,0.0188265380650805,0.0103433865234235,0.0938945738807096,0.0484830165834047,0.0386039918758329
0.0037687198539849,0.0595791628547411,0.0453702398012049,0.018402737374979,0.0107692744673118,0.0904484996038465,0.0454460335637997,0.0375786771760193
0.00375284106764241,0.0583356509584878,0.0444421294013842,0.0179405104542605,0.0112092849914338,0.0868840511076062,0.0424734571154395,0.0364873814803295
0.00374138988147222,0.0568831719595738,0.0435476355124584,0.0174449396911942,0.0116622440087574,0.0832297237729996,0.0395919539687821,0.035342357568899
0.00373675694311367,0.0552408499406407,0.0426992666989428,0.0169213404849326,0.0121265562892262,0.0795140162521026,0.0368266950258126,0.0341558381221036
0.00374129990508477,0.0534294602850782,0.04190902364413,0.0163751527978894,0.0126001728977066,0.0757652326038912,0.034201164018975,0.0329398572541693
0.00375729620946724,0.0514710413618793,0.0411881089057207,0.0158118324296379,0.0130805699691125,0.0720112896503198,0.0317369826646094,0.0317060840209117
0.00378689749539925,0.0493884925472835,0.0405466516625841,0.0152367451555507,0.0135647405907722,0.0682795227341391,0.0294537518557507,0.0304656731531829
0.00383208628989882,0.0472051695387516,0.0399934575508316,0.0146550671086107,0.0140492012803926,0.064596484222864,0.0273689094887949,0.0292291369050689
0.0038946355024304,0.0449444886436521,0.0395357927160462,0.0140716946987233,0.014530014191332,0.0609877324273616,0.0254976063951205,0.0280062402329639
0.00397607113182059,0.0426295509517608,0.0391792093838177,0.0134911669004344,0.0150028256396571,0.0574776125974985,0.0238526023138625,0.0268059200112532
0.00407763854364296,0.0402827953738456,0.0389274181909893,0.012917602008949,0.0154629208703202,0.0540890345933427,0.0224441837004531,0.0256362277217756
0.00420027269834056,0.0379256875640317,0.0387822106655593,0.0123546501787939,0.0159052943378254,0.0508432524150433,0.0212801043884137,0.0245042940292114
0.00434457277698019,0.0355784502399845,0.0387434335101236,0.0118054623605718,0.0163247342374544,0.047759649443273,0.0203655492205018,0.023416312957831
0.0045107816994102,0.0332598389700011,0.0388090145224383,0.0112726756278076,0.0167159194913647,0.0448555323853762,0.0197031204302877,0.02237754310314
0.00469877098882944,0.0309869657294494,0.038975038035985,0.0107584142666001,0.0170735267411295,0.0421459377697549,0.0192928468415155,0.0213923234343074
0.00490803129613551,0.0287751706095087,0.0392358658703604,0.0102643053698525,0.017392344169101,0.0396434565198691,0.0191322164928836,0.0204641016181094
0.00513766875553875,0.0266379403794571,0.0395842982791209,0.00979150716309264,0.0176673884665043,0.0373580834578175,0.0192162337198789,0.0195954731388251
0.00538640728971318,0.0245868710953682,0.0400117685492441,0.00934074799788142,0.0178940211972932,0.0352970987801085,0.0195375018023068,0.0187882294592575
0.00565259700712078,0.0226316704762927,0.0405085647462256,0.00891237380927268,0.0180680611123666,0.0334649874775516,0.0200863319304897,0.0180434129341325
0.00593422888252828,0.0207801947165583,0.0410640722376111,0.00850640166218524,0.0181858893853072,0.031863400957735,0.020850878492475,0.0173613756433569
0.00622895592863027,0.0190385141519101,0.0416670303965998,0.00812257672209624,0.0182445448864891,0.0304911636494218,0.0218172997825685,0.0167418394128231
0.00653412100521694,0.0174110026121131,0.0423057958594022,0.00776042982395157,0.0182418062956613,0.0293443262624755,0.0229699425361866,0.0161839550564156
0.00684679124056118,0.0159004459143514,0.0429686037184417,0.0074193330618073,0.0181762575993685,0.0284162662788171,0.0242915483263188,0.0156863599125225
0.00716379876775579,0.0145081652578182,0.0436438184335882,0.00709855142830684,0.0180473340553463,0.0276978348850663,0.0257634796652056,0.0152472336074743
0.00748178719459755,0.0132341510241324,0.0443201681220012,0.00679728922007454,0.0178553470123588,0.0271775480297179,0.0273659633441968,0.0148643523032144
0.00779726302256634,0.0120772021454449,0.044986958259745,0.00651473037044469,0.017601487440652,0.0268418179948924,0.02907834784138,0.0145351414032254
0.0081066511319282,0.0110350664760399,0.0456342624141486,0.00625007194481879,0.0172878089060469,0.0266752209844735,0.0308793707438682,0.0142567262208772
0.0084063534351959,0.0101045785356213,0.0462530875603107,0.00600255005680979,0.0169171907640735,0.026660795629758,0.0327474317349648,0.0140259799873377
0.00869280981704815,0.00928179219434539,0.046835510539286,0.00577145781398589,0.016493282366772,0.0267803668037329,0.0346608670153523,0.0138395688573479
0.00896256043596107,0.00856210691275657,0.0473747822047934,0.00555615551758995,0.0160204297980108,0.0270148884870737,0.0365982216890919,0.0136939940507133
0.00921230826691071,0.00794038670954901,0.0478653974131898,0.00535607393705451,0.0155035877578837,0.0273447984507465,0.0385385169905399,0.0135856316970461
0.0094389804623533,0.00741107105666576,0.0483031314308662,0.00517071181663602,0.0149482199932586,0.0277503764021538,0.0404615087035073,0.0135107710998072
0.00963978694302742,0.00696827681389954,0.0486850453632538,0.00499962878234792,0.0143601917123476,0.0282120966283129,0.0423479320980665,0.0134656518782322
0.00981227473967603,0.00660589056726753,0.0490094637799438,0.00484243469580255,0.0137456570375604,0.0287109664671641,0.0441797284061102,0.0134464999941805
0.00995437690508069,0.00631765130417405,0.0492759267099219,0.00469877647259263,0.0131109443586116,0.0292288430856821,0.0459402487801252,0.0134495624651683
0.0100644551050191,0.0060972239930772,0.049485117205915,0.00456832343484247,0.0124624424713264,0.0297487226980792,0.0476144333930342,0.0134711407279147
0.01014133506298,0.00593826510985707,0.0496387661649824,0.00445075228762942,0.0118064902873926,0.030254997998955,0.0491889650834723,0.0135076229554119
0.0101843338176862,0.00583448133394941,0.049739537726118,0.00434573272740024,0.0111492724957218,0.0307336806229314,0.0506523979556325,0.013555515886586
0.0101932775524348,0.00577968252759018,0.0497909002222798,0.00425291450692345,0.0104967230251654,0.03117258542986,0.0519952610161465,0.013611476691064
0.0101685089085997,0.00576782987557288,0.0497969882495218,0.0041719165479442,0.0098544377828261,0.031561472680612,0.0532101353659651,0.0136723449925575
0.0101108831960485,0.00579307984145042,0.0497624604322545,0.00410231847198934,0.00922759791472914,0.0318921439680404,0.0542917019377161,0.0137351746132643
0.0100217535359694,0.00584982435953879,0.0496923558254841,0.00404365473756721,0.00862090458413143,0.0321584888654456,0.0552367564989571,0.0137972641993058
0.0099029454245592,0.00593272741646413,0.049591951143174,0.00399541140260456,0.00803852588127605,0.0323564814409553,0.0560441897299484,0.0138561857426144
0.00975672126943437,0.0060367579435836,0.0494666214118526,0.00395702534630817,0.00748405608178282,0.0324841284434451,0.0567149321546137,0.0139098100689761
0.00958573528777814,0.00615721872413623,0.0493217075287973,0.00392788563648024,0.00696048725341004,0.032541373348926,0.0572518658849691,0.0139563285403015
0.00939297925798865,0.00628977078837902,0.0491623947043547,0.00390733669143812,0.00647019315874432,0.0325299618576205,0.0576597067858746,0.0139942704385566
0.00918172013071152,0.00643045265164314,0.048993605184236,0.00389468295017603,0.00601492535715346,0.0324532744463302,0.0579448610726996,0.0140225156468477
0.00895543116037705,0.00657569387006855,0.0488199069880732,0.00388919484739843,0.00559582123920456,0.032316130690604,0.058115259143707,0.0140403021714521
0.0087177186668026,0.00672232271806392,0.0486454389070645,0.00389011589096314,0.00521342345745422,0.0321245695511146,0.0581801674051317,0.0140472276707329
0.0084722465730552,0.00686756819278173,0.0484738517121244,0.00389667055521286,0.00486770999708205,0.0318856102538069,0.0581499777744422,0.0140432437271958
0.00822266062298858,0.00700905684257693,0.0483082661090149,0.00390807268105485,0.00455813397375641,0.031606999470889,0.058035975302651,0.0140286415875467
0.00797251401156551,0.00714480495395905,0.0481512484214501,0.00392353418927449,0.00428367205876011,0.0312969517161535,0.0578500865713539,0.014004028646373
0.00772519616777933,0.00727320645941174,0.0480048043456882,0.00394227408413858,0.00404288020217454,0.0309638907292498,0.0576046143380428,0.0139702958586185
0.00748386648711484,0.00739301678909003,0.0478703896292443,0.0039635278275674,0.00383395511956784,0.0306161997625534,0.0573119662775095,0.0139285771655592
0.00725139479122444,0.00750333289642402,0.0477489356738733,0.00398655712708087,0.00365479982273993,0.0302619879337325,0.0569843865931754,0.0138802025076827
0.00703031012460693,0.00760356977073854,0.0476408883255742,0.00401066003479379,0.00350309133786094,0.0299088785404778,0.0566336982679401,0.0138266459031843
0.00682275918398279,0.00769343384217433,0.0475462584614339,0.00403518110492092,0.00337634876390758,0.0295638241949983,0.0562710617248208,0.0137694698008845
0.00663047532505336,0.00777289377432943,0.0474646823023608,0.00405952125425803,0.00327199997330078,0.029232952992811,0.0559067544397005,0.0137102670329667
0.00645475880517382,0.00784214923708481,0.0473954880222731,0.00408314691211976,0.00318744541787317,0.0289214492697945,0.0555499760675458,0.0136506021955736
0.00629646867287934,0.00790159834085204,0.0473377647856623,0.00410559803934375,0.00312011755342962,0.0286334714345175,0.0552086842930217,0.0135919548460644
0.00615602643259297,0.00795180443327062,0.0472904312327985,0.00412649464435775,0.00306753439931602,0.0283721079675222,0.054889467197219,0.0135356672183737
0.00603343128554316,0.00799346282623084,0.0472523016574032,0.00414554150128053,0.00302734591773953,0.0281393713417127,0.0545974579527051,0.0134828990502559
0.00592828644809608,0.00802736775895427,0.0472221484574576,0.00416253081457163,0.00299737227797686,0.0279362283333185,0.0543362968638624,0.0134345916236115
0.00583983580432426,0.00805437974330799,0.0471987584529517,0.0041773425167726,0.00297563352247094,0.0277626638496975,0.054108144100794,0.013391442511665
0.00576700990861402,0.00807539355224332,0.0471809797062526,0.00418994180748641,0.00296037048689551,0.0276177743567051,0.0539137440230986,0.0133538920258668
0.00570848006948045,0.0080913074378109,0.0471677561194526,0.00420037362359901,0.00295005695188324,0.0274998865173639,0.0537525390665734,0.0133221219329379
0.00566271894450652,0.00810299450959695,0.0471581491460722,0.0042087540100561,0.00294340308816832,0.0274066964681649,0.0536228283609447,0.0132960665690982
0.00562806581918179,0.00811127735374572,0.0471513482055443,0.00421525870516814,0.00293935052957302,0.0273354247138739,0.0535219640109188,0.0132754359614629
0.0056027945283772,0.00811690683168324,0.0471466724694078,0.0042201094766228,0.00293705984397233,0.0272829807185234,0.0534465764227483,0.0132597499797327
0.00558518176642133,0.00812054573802818,0.0471435660517636,0.00422355877229291,0.0029358915923931,0.0272461305173613,0.0533928191079662,0.0132483819234667
0.00557357328483998,0.00812275783008903,0.047141587591369,0.00422587327960664,0.00293538240825338,0.0272216605548284,0.0533566227466418,0.0132406093366816
0.00556644518339799,0.00812400261988203,0.0471403953487944,0.00422731720025606,0.00293521756979987,0.0272065310777452,0.0533339474407017,0.013235669230622
0.00556245718058371,0.00812463610395396,0.047139730004855,0.00422813634901924,0.00293520154896646,0.0271980121085058,0.0533210205009477,0.0132328142448974
0.0055604944376361,0.00812491724404068,0.0471393981474219,0.00422854438025771,0.00293522812722848,0.0271937941176229,0.0533145447611353,0.0132313655647451
0.00555969421270525,0.00812501955804494,0.0471392590207212,0.0042287124396741,0.00293525182145875,0.0271920645967092,0.0533118601041118,0.0132307577159546
0.00555945332722018,0.00812504673359276,0.0471392154204438,0.00422876345193659,0.00293526246843866,0.0271915411515996,0.0533110391630488,0.013230569752795
