APL,FCR,FDS,FDP,ED,EI,ECU,ECR
0.000194974936480367,0.00118099826016654,0.056227889027331,0.0156596521621813,0.00286910286334293,0.02991725856488,0.0214220458920786,0.00582480061429678
0.00039527898442526,0.00152968227068777,0.0810989168213365,0.0183664705917979,0.00331252306960928,0.0331631495583234,0.0230044134517572,0.00596871912241856
0.00059747578926141,0.00187468571392123,0.104528486715822,0.0209679688755984,0.00376956359697809,0.036100197928931,0.0246686300267815,0.00608006943010925
0.000800931092701889,0.00221416870607391,0.126327808953571,0.0234458620844217,0.00423924148015126,0.0387078969043709,0.026415604130096,0.00615983085977226
0.0010050698254776,0.00254640813022338,0.146331514514431,0.0257836542413962,0.00472064876869212,0.0409719484679627,0.0282464639698967,0.00620989373046233
0.00120938344381271,0.00286981688278091,0.164400623049411,0.027966873502493,0.00521297711592568,0.0428848013815893,0.0301625757073303,0.00623308605899851
0.00141343415999848,0.00318295740534912,0.180424836630497,0.0299832440806439,0.00571553802072653,0.0444460485321792,0.0321655461133064,0.00623317882979793
0.00161685595447367,0.00348454957841638,0.194324117247707,0.03182279395849,0.00622777726953149,0.045662676732447,0.0342572108569269,0.00621486933375814
0.00181935235809634,0.00377347328241972,0.206049549163201,0.0334779026951595,0.00674928230098798,0.0465491702100146,0.0364396114747478,0.00618374325183323
0.00202069117087613,0.00404876600881054,0.215583514473447,0.0349432969046983,0.00727978159752563,0.0471274733841894,0.0387149646965654,0.00614621677669138
0.00222069647891827,0.00430961608073915,0.222939219138127,0.0362160019065846,0.00781913558071936,0.0474268192085614,0.0410856272366253,0.00610946017186925
0.00241923844100965,0.00455535234957743,0.228159607186095,0.0372952573498645,0.00836731861898982,0.0474834288637283,0.0435540578539846,0.00608130419859574
0.00261622132083379,0.00478543150561482,0.231315706773764,0.0381824037336281,0.00892439173926565,0.0473400891604892,0.0461227770462149,0.00607013098676689
0.00281157023714703,0.00499942423298922,0.232504465577411,0.0388807462912985,0.00949046588433037,0.0470456155021475,0.0487943235979226,0.00608475099452357
0.00300521715952822,0.00519700133310223,0.231846149137718,0.0393954023543088,0.0100656562269658,0.0466542095763506,0.0515712063710685,0.00613426760157262
0.00319708675587651,0.00537792074881828,0.229481388326364,0.0397331377505403,0.0106500289273541,0.0462247211449783,0.0544558487203519,0.00622793083149164
0.00338708273701918,0.00554201620988056,0.225567966899137,0.0399021970067584,0.0112435424741751,0.0458198222147935,0.0574505213300669,0.00637498184491553
0.00357507530113673,0.00568918798295061,0.220277436028283,0.0399121313080596,0.0118459860993704,0.0455051009675225,0.0605572579612981,0.00658449006140538
0.00376089016090764,0.00581939599790831,0.213791633921214,0.0397736275430703,0.0124569176384383,0.0453480835440549,0.0637777490136067,0.00686518485011605
0.00394429949921574,0.00593265545994837,0.206299181617449,0.0394983413994817,0.0130756029567391,0.0454171936550148,0.0671132101015519,0.00722528364113564
0.00412501509086026,0.00602903488259217,0.197992022185604,0.0390987371880011,0.0137009590556574,0.0457806614520441,0.0705642258995183,0.00767231832141091
0.00430268374743529,0.00610865624592221,0.189062067363826,0.0385879364645768,0.0143315032146957,0.0465053930594517,0.0741305715488391,0.00821296211808781
0.00447688518301435,0.00617169678660084,0.179698010800366,0.0379795762547089,0.0149653108247356,0.0476558119654868,0.077811013668627,0.00885285975487371
0.00464713235708974,0.00621839188021225,0.170082359262014,0.037287676186018,0.0155999847214432,0.0492926853243859,0.0816030918382347,0.00959646424977675
0.00481287431828364,0.00624903857675134,0.160388723423753,0.0365265131178678,0.0162326386845819,0.0514719519952495,0.0855028823007322,0.01044688404871
0.00497350151816293,0.00626399949867928,0.150779400835747,0.0357105021973946,0.0168598972732694,0.0542435730579275,0.0895047490313697,0.0114057441359231
0.0051283534457169,0.0062637068773093,0.14140327648898,0.034854084113062,0.0174779133859814,0.0576504277598113,0.0936010913122928,0.0124730645259099
0.00527672824429544,0.00624866639840795,0.132394059948419,0.0339716188150853,0.018082404020632,0.0617272776346732,0.0977820991439853,0.0136471594248434
0.00541789380602036,0.0062194603458072,0.123868870958592,0.0330772854980129,0.0186687038151812,0.0664998203254421,0.102035526850929,0.0149245603429559
0.00555109978913984,0.00617674949146809,0.115927177901166,0.0321849876259058,0.019231835142231,0.0719838542434315,0.106346492858183,0.016299966330399
0.00567559008143615,0.00612127333902192,0.108650087317402,0.0313082614641434,0.0197665927362005,0.0781845753429459,0.110697313084506,0.0177662241238875
0.005790615394588,0.00605384858049319,0.102099978681426,0.0304601872382987,0.0202676399874968,0.0850960267113963,0.115067377233521,0.0193143403842655
0.00589544584424308,0.00597536582944108,0.0963204757426903,0.0296533028884372,0.0207296134123058,0.0927007195202551,0.119433079807807,0.0209335276155398
0.00598938344800588,0.00588678472926481,0.0913367426459086,0.028899520522099,0.0211472317328452,0.100969440434522,0.12376781893972,0.0226112848458488
0.00607177438487129,0.00578912738607742,0.0871560887686638,0.0282100449892027,0.021515406452056,0.10986125685373,0.128042074604497,0.0243335135781895
0.00614202068574196,0.00568346991362689,0.0837688611849771,0.0275952936141317,0.0218293514264469,0.11932372752883,0.132223573496398,0.0260846687228828
0.00619959096680118,0.00557093189585735,0.0811495991907899,0.0270648167423325,0.0220846892376057,0.129293321561003,0.136277543245282,0.0278479431724024
0.00624402994153606,0.0054526637783679,0.0792584217788184,0.0266272198848239,0.0222775518273281,0.139696043454218,0.140167055848398,0.0296054836000202
0.00627496667508232,0.00532983248076181,0.0780426158601882,0.0262900889933735,0.022404672306619,0.150448256795322,0.143853459035899,0.0313386342371006
0.00629212176894031,0.00520360572752472,0.0774383902261155,0.0260599202144727,0.0224634648742973,0.161457695262051,0.14729689378975,0.0330282049013195
0.00629531379570695,0.00507513560778552,0.0773727580620724,0.025942054744255,0.0224520905487681,0.17262464716904,0.150456895500488,0.0346547593509609
0.00628446528649262,0.00494554175040684,0.0777655097786236,0.0259406191541578,0.0223695075375507,0.183843298208351,0.153293074588418,0.036198919942656
0.00625960839425232,0.00481589446079836,0.0785312381945933,0.0260584720355245,0.0222155060086864,0.195003215428104,0.155765869273463,0.0376416842610409
0.00622089008623804,0.00468719828542668,0.0795813791648431,0.0262971585434278,0.0219907273032915,0.205990952307511,0.157837358027442,0.0389647485220084
0.00616857650999854,0.00456037663750629,0.0808262312760647,0.0266568748300351,0.0216966671763141,0.216691748684615,0.159472112295079,0.040150831172081
0.00610305611747512,0.00443625819547887,0.0821769170339845,0.0271364440486413,0.0213356622219107,0.226991291712768,0.160638063633446,0.0411839890277799
0.00602484121261899,0.00431556570576668,0.0835472464188756,0.0277333047362604,0.0209108589716055,0.236777499508887,0.161307356308284,0.0420499182474121
0.00593456775975959,0.00419890765128916,0.0848554453057151,0.028443511727309,0.0204261661670066,0.245942290351129,0.161457157498204,0.0427362333941383
0.00583299347980957,0.00408677310974228,0.0860257172240723,0.0292617497524486,0.019886191890125,0.254383306342941,0.161070401797324,0.0432327193529308
0.00572099438737908,0.00397953001887189,0.0869896155835007,0.0301813602706153,0.0192961680137162,0.26200556825486,0.160136452536463,0.0435315521474646
0.00559955991312383,0.00387742692053027,0.08768721182741,0.0311943823305062,0.0186618644368704,0.268723043168675,0.1586516663825,0.043627484942032
0.00546978659143709,0.00378059807387664,0.0880680499349226,0.0322916078639674,0.0179894950568953,0.274460104428467,0.156619846897346,0.0435179945655542
0.00533287008061403,0.00368907167609544,0.0880918781801996,0.0334626508743582,0.0172856172055059,0.27915285612462,0.154052568876457,0.0432033831731314
0.00519009519110664,0.00360278080048511,0.0877291486436924,0.0346960294027792,0.016557026646929,0.282750291059895,0.150969354962897,0.042686830588787
0.00504282368001273,0.00352157651676422,0.0869612782999735,0.0359792594672573,0.0158106508683358,0.285215256726052,0.14739769231954,0.0419743952809504
0.00489247977584254,0.00344524255639336,0.0857806728911949,0.0372989610327228,0.0150534438628164,0.286525215375686,0.14337288748368,0.0410749647225013
0.00474053364036583,0.00337351090365262,0.0841905238195741,0.038640976775491,0.0142922856216102,0.2866727963474,0.138937767560777,0.0400001578160725
0.0045884831587839,0.00330607778979662,0.0822043960735194,0.0399905042687729,0.0135338890752121,0.285666146135227,0.134142241627261,0.0387641822731558
0.00443783449426285,0.00324261962777331,0.0798456292814251,0.0413322411247052,0.0127847165493197,0.283529080587016,0.129042735722471,0.0373836489282989
0.00429008173443548,0.00318280838796633,0.07714657380377,0.0426505415089371,0.0120509072643382,0.280301034760033,0.123701511159195,0.0358773447826376
0.00414668582599242,0.00312632589192198,0.0741476825119484,0.0439295821475803,0.0113382170051313,0.276036797286756,0.118185874942226,0.0342659677832076
0.00400905299260774,0.0030728766148654,0.0708964800957546,0.0451535363750029,0.0106519706750167,0.270806015122251,0.112567294419301,0.0325718282451592
0.00387851296732695,0.00302219879177801,0.0674464349679866,0.0463067554521037,0.00999702793654919,0.264692461534058,0.106920433685661,0.0308185234621516
0.00375629755761346,0.0029740737857652,0.0638557617554466,0.0473739568722321,0.00937776153057014,0.257793071655214,0.101322134095351,0.0290305927035237
0.00364352019773996,0.00292833370952483,0.0601861831378946,0.048340419307019,0.00879804722515838,0.250216761236381,0.0958503635266317,0.0272331592423793
0.0035411571514553,0.00288486724515171,0.056501678024997,0.0491921829430199,0.00826126379370965,0.242083050643939,0.0905831578673214,0.0254515649872492
0.00345003091974578,0.00284362363403755,0.0528672399956779,0.0499162521685555,0.00777030107860369,0.233520514340372,0.0855975742364648,0.0237110027619305
0.00337079629949917,0.00280461493858659,0.0493476668266098,0.0505007955593762,0.007327574136734,0.224665068532226,0.0809686711400811,0.0220361514764598
0.00330392947975118,0.00276791682954099,0.0460063988963119,0.050935336931037,0.0069350416525821,0.215658105584129,0.0767685275420895,0.0204508199067874
0.00324972048893866,0.00273366823751461,0.0429044215377419,0.0512109312815367,0.00659422708287629,0.206644488298045,0.0730653102276163,0.0189776050897119
0.00320826918068495,0.00270207018064092,0.0400992443348854,0.0513203205593025,0.00630624113446148,0.19777042777126,0.0699223961958778,0.0176375711566769
0.00317948481717108,0.00267338398499105,0.037643968492167,0.0512580658651794,0.00607180411094424,0.189181280236111,0.0673975541488443,0.0164499537278613
0.00316308919834644,0.00264792903500399,0.0355864513087423,0.0510206541898442,0.00589126670990961,0.181019306148538,0.0655421869682919,0.0154318940150655
0.00315862316910815,0.00262608014007626,0.033968574739301,0.0506065782319407,0.00576462827326562,0.173421435570919,0.0644006360400377,0.014598205888292
0.00316545627385547,0.0026082645443809,0.0328256234054084,0.050016386816814,0.00569155215392912,0.166517078490549,0.0640095486969603,0.0139611784093375
0.00318279937195386,0.00259495851753093,0.0321857759842403,0.0492527020942731,0.00567137845744281,0.160426013294834,0.0643973115833849,0.0135304156013222
0.00320972012076918,0.00258668335035682,0.0320697122539224,0.0483201998917381,0.00570313469774367,0.1552563854198,0.0655835544090674,0.0133127144294507
0.00324516127081117,0.00258400047433965,0.032490336204179,0.0472255516648139,0.0057855448836492,0.151102849802324,0.0675787290475687,0.0133119811363736
0.00328796165206289,0.00258750536706708,0.0334526137639769,0.0459773294846846,0.00591703751734895,0.148044892379024,0.0703837676390824,0.0135291853013023
0.00333687962957244,0.00259781992717789,0.034953522158419,0.0445858781241276,0.00609575306279366,0.146145365665514,0.0739898219304112,0.0139623504015683
0.00339061872872525,0.00261558308746017,0.0369821070912522,0.0430631593679897,0.00631955147039855,0.14544927096323,0.0783780868031742,0.0146065793514944
0.00344785503406892,0.00264143951970258,0.0395196439981501,0.0414225729474286,0.00658602022280435,0.145982815504641,0.0835197139260496,0.0154541135083459
0.00350726582371746,0.00267602629899292,0.0425399002533945,0.0396787575054923,0.00689248324246073,0.147752767671879,0.0893758253646383,0.0164944238989763
0.00356755874908436,0.00271995739053993,0.046009495874579,0.0378473752504898,0.00723601101064121,0.150746127799529,0.0958976401287551,0.0177143337569529
0.00362750072241941,0.0027738059447889,0.0498883602963746,0.0359448851871869,0.0076134322918171,0.154930125934542,0.103026727629602,0.0190981716162212
0.00368594558077811,0.002838084649639,0.0541302817436837,0.0339883110741476,0.00802134777385727,0.160252550864021,0.110695400192944,0.0206279539566336
0.00374185964439787,0.00291322466618868,0.0586835440293157,0.0319950108103077,0.00845614574848931,0.166642406785121,0.118827252875463,0.022283595823912
0.00379434447941024,0.00299955382694565,0.0634916442240676,0.0299824535193646,0.00891401991692306,0.174010886421281,0.127337854673546,0.0240431474390576
0.00384265640302989,0.00309727478271367,0.068494083860466,0.0279680092961641,0.00939098962672658,0.182252643381294,0.136135591568166,0.0258830548667856
0.00388622239103283,0.00320644379193954,0.0736272256873351,0.0259687548558117,0.00988292319973221,0.191247342320363,0.145122658338504,0.0277784432242989
0.00392465203436253,0.00332695093580885,0.0788252070245017,0.0240012967355602,0.0103855652816465,0.200861462762702,0.154196192381564,0.0297034214175901
0.00395774523102322,0.00345850263338049,0.0840208993453432,0.0220816124940806,0.0108945691497817,0.210950330905766,0.163249538993325,0.0316314077056308
0.0039854955220383,0.00360060732661309,0.0891469020954753,0.0202249095619142,0.0114055346096512,0.221360352817149,0.17217363409157,0.0335354752761353
0.00400808929229608,0.00375256510656358,0.0941365573120228,0.0184455010166493,0.0119140516310819,0.231931421413038,0.180858487585685,0.0353887163362882
0.0040259012854368,0.00391346194999232,0.0989249703416139,0.0167566975256474,0.0124157493539138,0.242499467455739,0.189194748576601,0.0371646219682626
0.00403948691832913,0.00408216916061296,0.103450020174241,0.0151707148592869,0.0129063495156071,0.252899120245922,0.197075331708409,0.0388374733160768
0.00404957180408016,0.00425734851472689,0.107653339845866,0.013698596486368,0.0133817227147301,0.26296643556247,0.204397080963887,0.0403827378932429
0.00405703886453009,0.00443746345894902,0.111481244254093,0.012350150575793,0.0138379453451878,0.272541637948149,0.211062441435928,0.0417774632938095
0.00406291342161127,0.00462079649802066,0.114885582309919,0.0111339002184734,0.014271354709108,0.281471816552702,0.216981101830942,0.0430006596280311
0.00406834659569099,0.00480547266821204,0.117824493451194,0.0100570452652098,0.0146785998873164,0.289613512423348,0.222071565258708,0.0440336618201461
0.00407459722339466,0.00498948873435976,0.120263053730515,0.00912543423577029,0.0150566864004283,0.296835141036205,0.226262606827141,0.0448604635847474
0.00408301245782561,0.00517074748681905,0.122173801266112,0.00834354522325284,0.0154030133055273,0.30301920516333,0.229494583383871,0.0454680162026376
0.00409500723420486,0.0053470962753544,0.123537131986388,0.00771447533073244,0.0157154017617826,0.308064265626012,0.231720570476713,0.0458464864916674
0.00411204276556768,0.00551636874048741,0.124341554456807,0.00723993867330087,0.0159921140028828,0.311886644920176,0.232907309606885,0.0459894686960248
0.00413560413525892,0.00567642862042236,0.124583792190403,0.00692027316435244,0.0162318614582662,0.314421836436808,0.233035950360108,0.0458941441517279
0.00416717700125679,0.00582521452449257,0.12426872675565,0.00675445618500056,0.0164338011523068,0.315625585466057,0.232102567059528,0.0455613820870988
0.00420822352517632,0.00596078463225998,0.12340918358295,0.00674012912705409,0.0165975205108509,0.315474610406846,0.230118426835514,0.0449957763844628
0.00426015783456074,0.00608136032210069,0.12202557074067,0.00687363094886183,0.0167230117998099,0.313966947323705,0.227109992327432,0.0442056162821284
0.00432432150646217,0.00618536766369747,0.120145385279082,0.00715004118515687,0.0168106380120668,0.311121922026649,0.223118655687646,0.0432027924799287
0.00440195962244806,0.00627147555003826,0.117802600749818,0.00756323308836454,0.0168610918972376,0.306979772500992,0.218200215280233,0.0420026424594526
0.00449419785693801,0.00633862921630237,0.115036947202164,0.00810593759929657,0.0168753495573981,0.301600953283213,0.212424116367625,0.0406237391620943
0.00460202091142082,0.00638607814743816,0.111893096223157,0.00876981862354188,0.0168546201940917,0.295065149566225,0.205872478140715,0.0390876262343179
0.00472625251609933,0.00641339784502992,0.10841976830682,0.00954555971797952,0.0168002940285995,0.287470019611685,0.198638923863082,0.0374185028451545
0.00486753720446961,0.00642050541423708,0.104668785225013,0.0104229618780187,0.0167138906635633,0.278929680501346,0.190827227392307,0.0356428623233057
0.00502632409439556,0.00640766922338624,0.100694093464996,0.0113910517529602,0.0165970099044743,0.269572956447328,0.182549792515613,0.0337890908474409
0.0052028529594012,0.0063755128866909,0.0965507845843145,0.0124381993814144,0.0164512864978588,0.25954141691516,0.173925989001087,0.0318870342354741
0.00539714292594411,0.00632501373966614,0.0922941348917413,0.0135522443908867,0.016278349879498,0.248987239777081,0.165080376920453,0.0299675418109481
0.00560898414877705,0.00625749610272116,0.0879786829301103,0.0147206293921704,0.016079789982785,0.238070939788932,0.156140855205725,0.0280619960408867
0.00583793274195254,0.00617461995022845,0.0836573608045003,0.0159305388924313,0.0158571301740507,0.226959002900534,0.147236769495134,0.0262018355163093
0.00608330906410576,0.00607836594411046,0.0793806939473587,0.017169041591077,0.0156118081714801,0.215821461165555,0.138497008797583,0.0244180779274295
0.00634419928831137,0.00597101799177946,0.0751960823376455,0.0184232337201944,0.0153451652510861,0.204829433423931,0.130048114917343,0.0227408494884914
0.00661946015679851,0.00585514446403529,0.0711471739115361,0.0196803812492793,0.0150584433745331,0.194152650028804,0.122012426685875,0.0211989275111459
0.00690772692337761,0.00573357899544078,0.0672733379270773,0.0209280591853962,0.0147527894300938,0.183956979921145,0.114506282359951,0.0198193030808231
0.00720742462824141,0.00560940154046758,0.0636092427979165,0.022154286653855,0.0144292656189818,0.174401984107567,0.107638305808712,0.0186267707472281
0.00751678290892329,0.00548592016940544,0.0601845399584364,0.0233476566677441,0.0140888650408439,0.165638527425956,0.101507803054235,0.0176435516468171
0.00783385443337788,0.00536665392724097,0.0570236530566009,0.0244974592240964,0.013732531627513,0.157806486244717,0.0962032938210664,0.0168889555946567
0.00815653680831516,0.00525531689421093,0.05414567016763,0.0255937956479049,0.0133611836391149,0.151032590211206,0.0918011985869255,0.0163790867385194
0.00848259768036799,0.0051558033587171,0.0515643352814674,0.0266276815374475,0.0129757398414826,0.145428431457214,0.0883646980692285,0.0161265966135305
0.00880970279290196,0.00507217375643353,0.0492881333709964,0.0275911357407637,0.0125771471217135,0.141088669686205,0.0859427804949373,0.016140487787844
0.00913544689019078,0.00500864078234227,0.047320461023436,0.0284772534787218,0.0121664078391729,0.138089460002277,0.0845694911520069,0.0164259705632892
0.00945738741846259,0.0049695548916762,0.0456598731414025,0.0292802627235765,0.0117446050916498,0.136487130855039,0.0842633969386282,0.0169843743721281
0.00977308082982857,0.00495938830458199,0.0443003962120756,0.0299955638455423,0.011312924472979,0.136317139352421,0.0850272752806989,0.017813114748542
0.010080120977647,0.00498271661075993,0.0432318995944175,0.0306197529324971,0.0108726716140012,0.137593328826426,0.0868480330605984,0.0189057160587039
0.0103761788368007,0.00504419706898606,0.0424405173803893,0.0311506287624689,0.0104252854912025,0.140307508850411,0.0896968583070082,0.020251889402865
0.0106590427433156,0.00514854262060346,0.0419091140084095,0.0315871824046058,0.00997234783272193,0.144429371922075,0.0935296047922014,0.0218376642982924
0.0109266584581756,0.00530049051950369,0.0416177866240938,0.0319295677680902,0.00951558883391052,0.149906754990992,0.0982874062982685,0.0236455721600776
0.0111771684523625,0.00550476452670778,0.0415443961572573,0.0321790517188557,0.00905688910816494,0.156666248634439,0.103897513244371,0.0256548793177347
0.0114089497038958,0.00576602992255305,0.0416651173508447,0.032337943552557,0.00859827774361302,0.164614151818384,0.110274340955578,0.0278418672304042
0.0116206489675164,0.00608884105112289,0.0419549960491253,0.0324095052412208,0.00814192654612599,0.173637765011058,0.117320716691875,0.0301801574753612
0.0118112142167445,0.00647758153157745,0.0423885009060576,0.0323978453860066,0.00769014085531055,0.183607007943588,0.124929311033431,0.0326410787129004
0.0119799210317358,0.00693639745767639,0.0429400570294169,0.032307800561133,0.00724534756701355,0.194376340260283,0.132984237270685,0.0351940719534216
0.012126393035917,0.00746912387375737,0.0435845509560474,0.0321448073629198,0.00681008108088093,0.205786955057077,0.141362798970454,0.037807129189905
0.0122506157843496,0.00807920488719458,0.0442977990309971,0.0319147676843777,0.00638696776833459,0.21766920856275,0.149937360729501,0.0404472593425528
0.0123529434909589,0.00876960818878969,0.0450569733858465,0.0316239097676306,0.00597870926752912,0.229845244555641,0.158577312276772,0.0430809748291151
0.012434097727979,0.00954273542821423,0.045840980129846,0.0312786486207474,0.00558806462675987,0.242131769587251,0.16715109373037,0.0456747918911066
0.0124951572381478,0.0104003306050328,0.0466307839078082,0.0308854507346662,0.00521783118398593,0.25434293455266,0.175528250242028,0.0481957379083158
0.0125375384743807,0.011343389120024,0.0474096738723749,0.0304507089455401,0.00487082409350471,0.266293278944564,0.18358148640295,0.050611859096067
0.0125629671447844,0.0123720701981985,0.0481634687555303,0.0299806333028666,0.00454985452811965,0.277800694731065,0.191188692753552,0.0528927218944929
0.0125734414789372,0.0134856151766743,0.0488806617664063,0.0294811628822897,0.00425770670703054,0.288689364697396,0.198234916174711,0.0550099006132936
0.0125711878899963,0.0146822740463419,0.0495525080122545,0.028957901933035,0.00399711392544844,0.298792622966349,0.204614241241099,0.0569374422387074
0.0125586094268246,0.0159592427824437,0.050173057177537,0.0284160819939412,0.00377073366579692,0.307955675786413,0.210231543261869,0.0586522975017939
0.0125382274237632,0.0173126142359346,0.0507391328192069,0.0278605498512134,0.00358112180553003,0.316038116659639,0.215004071474171,0.0601347067963725
0.0125126171953547,0.0187373454922035,0.0512502586139505,0.0272957794894537,0.00343070604440447,0.322916176018213,0.218862825189064,0.0613685308837109
0.0124843392634344,0.0202272445176811,0.0517085321647205,0.0267259046281027,0.0033217588985149,0.328484660148475,0.221753695025697,0.0623415190519428
0.0124558681497029,0.0217749785826112,0.0521184482316744,0.0261547672400002,0.00325637081068325,0.332658551307541,0.223638351964048,0.0630455103848878
0.0124295209590364,0.023372106414119,0.0524866749327452,0.025585976803828,0.00323642400101955,0.335374253262907,0.22449487389431,0.0634765655616214
0.0124073877427345,0.0250091353570276,0.0528217880058033,0.0250229750373447,0.00326356760874691,0.336590467356602,0.224318098813958,0.0636350262041793
0.01239126529442,0.0266756040136403,0.0531339690134987,0.024469101434606,0.00333919453124855,0.336288677392426,0.223119688946702,0.0635254976019518
0.0123825959931164,0.0283601898382541,0.0534346728079965,0.0239276558610521,0.00346442022042068,0.33447322182942,0.220927890604024,0.0631567514323528
0.0123824135537515,0.0300508399798282,0.053736268073424,0.0234019553599943,0.00364006355886993,0.331170945601431,0.217786984540705,0.0625415484383182
0.0123912978338614,0.0317349225874484,0.0540516542378671,0.0228953827150124,0.00386662982672154,0.326430445757158,0.213756436924692,0.0616963855003451
0.012409340961738,0.0333993951646388,0.0543938595965601,0.0224114239735205,0.00414429573327944,0.320320945684767,0.208909775371468,0.0606411753161474
0.0124361268867786,0.035030986468527,0.0547756283843001,0.0219536917755038,0.00447289656690945,0.312930843453608,0.203333221776517,0.0593988684734577
0.0124707260073698,0.0366163887662331,0.055209007250504,0.0215259319728661,0.00485191570420127,0.304365977152082,0.197124111849118,0.0579950267745409
0.0125117058857998,0.0381424577013863,0.0557049426676895,0.0211320127113994,0.00528047695299059,0.294747641575437,0.190389126767032,0.0564573551376152
0.0125571583252459,0.0395964172181822,0.0562728998082184,0.0207758971747904,0.00575734038444923,0.284210388915349,0.1832423637908,0.0548151994481562
0.0126047423303783,0.0409660665572071,0.056920511768085,0.0204616027328075,0.00628090234130643,0.272899653533771,0.175803280248689,0.053099019409779
0.0126517417215807,0.0422399850978138,0.0576532672897275,0.0201931497468858,0.00684920017911782,0.260969251780867,0.16819455427506,0.0513398476541601
0.0126951354387648,0.0434077292993792,0.0584742452299346,0.0199745028413859,0.00745992214068705,0.248578815814461,0.160539911279468,0.0495687479859929
0.0127316779270758,0.0444600151634165,0.0593839040689517,0.0198095067651035,0.00811042270004832,0.235891221081476,0.152961964521157,0.0478162858393104
0.0127579865744292,0.045388879919498,0.0603799340143815,0.0197018185359039,0.00879774371285725,0.223070059741088,0.145580112539766,0.046112022623274
0.0127706330616688,0.0461878178835151,0.0614571773342714,0.0196548372988487,0.00951864168820225,0.210277201800672,0.138508530670318,0.044484043582402
0.0127662356893957,0.0468518872214082,0.0626076199008133,0.0196716331223045,0.0102696213884705,0.197670478368626,0.131854291142498,0.0429585272733057
0.0127415501491276,0.0473777860312212,0.0638204546334505,0.019754875861616,0.0110469757583369,0.185401517763308,0.125715644729389,0.0415593637450254
0.0126935565956954,0.0477638969487266,0.0650822159741895,0.0199067653348456,0.0118468319256823,0.173613762666617,0.120180494375798,0.0403078273315041
0.0126195409922902,0.0480102988589659,0.0663769831697258,0.0201289643573212,0.0126652027692878,0.16244069308218,0.115325086606434,0.0392223081837878
0.01251716845442,0.0481187430833353,0.0676866481897496,0.0204225364458255,0.0134980433308761,0.152004274921257,0.111212939995573,0.0383181043906878
0.0123845461140584,0.0480925915021495,0.0689912414760813,0.0207878898880117,0.0143413110954463,0.142413648008013,0.107894022682536,0.0376072741838205
0.0122202733398721,0.0479367161299046,0.0702693066701115,0.0212247293111199,0.0151910287577283,0.133764060861559,0.105404183945318,0.0370985457353495
0.0120234779802496,0.0476573628815507,0.0714983150542969,0.0217320154402087,0.0160433475987488,0.126136053042462,0.103764839015628,0.0367972809166561
0.0117938383254441,0.0472619852866001,0.0726551112609792,0.0223079338899442,0.0168946093422692,0.119594878869697,0.102982901943491,0.0367054891995096
0.0115315913201275,0.0467590554017355,0.0737163826155163,0.0229498744047391,0.017741404532297,0.114190159285296,0.10305095784036,0.0368218881977013
0.0112375278810456,0.046157858650443,0.0746591439522208,0.0236544224768633,0.018580625949962,0.10995574363621,0.103947662119601,0.0371420073977896
0.0109129760041201,0.0454682780012361,0.075461227592369,0.0244173653006133,0.0194095160619005,0.106909761807287,0.105638349849863,0.0376583308486319
0.0105597721815921,0.0447005724323885,0.0761017663044288,0.0252337133956153,0.0202257075891962,0.10505484923894,0.108075834526451,0.0383604735123426
0.01018022187052,0.0438651550984606,0.0765616573954774,0.0260977382978762,0.0210272558780909,0.104378531389084,0.111201374339015,0.0392353858472312
0.0097770502536937,0.042972377299664,0.0768239984712729,0.0270030260183825,0.0218126613489145,0.104853757914795,0.114945785339379,0.0402675822508017
0.00935334505921839,0.0420323247263341,0.0768744885798678,0.0279425456381372,0.022580880484524,0.106439577958225,0.119230683328933,0.0414393905916387
0.00891249355431664,0.0410546322773029,0.076701790900484,0.0289087323114082,0.0233313245656177,0.109081945769093,0.123969837766465,0.0427312213354748
0.00845811588822466,0.0400483229855333,0.0762978535494824,0.0298935839367138,0.0240638462714106,0.11271464346667,0.129070619729352,0.0441218549702913
0.00799399671875586,0.039021675226309,0.0756581831628042,0.0308887706730704,0.0247787148641928,0.117260308300393,0.134435522109745,0.0455887453887372
0.00752401667545389,0.0379821204968799,0.0747820635626551,0.031885756128795,0.0254765805828575,0.12263155501309,0.139963727020388,0.0471083355922067
0.00705208492791215,0.0369361720644041,0.0736727114707495,0.0328759282194054,0.0261584282091259,0.128732187858941,0.145552695357043,0.0486563817108364
0.0065820740061183,0.0358893833431435,0.072337363349632,0.0338507364377393,0.0268255193709447,0.135458499708829,0.151099756291606,0.0502082819614311
0.00611775798728422,0.0348463342367676,0.070787291105991,0.0348018312305082,0.0274793235816185,0.142700656488103,0.156503678615497,0.0517394082494061
0.00566275513981476,0.0338106436965771,0.0690377481212008,0.03572120091986,0.0281214391153211,0.150344163719233,0.161666209511521,0.0532254390170561
0.00522047604875066,0.0327850070328136,0.0671078492602801,0.03660130218237,0.0287535060863336,0.15827140841299,0.166493567688643,0.0546426920465094
0.00479407811823562,0.0317712566120759,0.0650203881098768,0.0374351811808358,0.0293771149417677,0.16636326419546,0.170897875405952,0.0559684548153337
0.00438642715452342,0.0307704440529224,0.0628015928827388,0.0382165835117704,0.029993713526671,0.174500740552562,0.174798508189436,0.0571813079747353
0.00400006648657563,0.0297829408492728,0.0604808220069612,0.0389400515641945,0.0306045150954784,0.182566649668726,0.178123335987943,0.058261435893224
0.00363719381232876,0.0288085532306194,0.0580902022262671,0.0396010072607338,0.0312104091159857,0.190447259077191,0.180809828900075,0.0591909179467592
0.00329964573008145,0.027846646752024,0.0556642148991149,0.040195816979335,0.0318118770751348,0.198033897091111,0.18280600488338,0.0599539952565587
0.0029888897572515,0.02689627657178,0.0532392386610758,0.0407218350335796,0.0324089165004022,0.205224481137008,0.184071204505771,0.060537309254602
0.00270602352767899,0.0259563201894103,0.0508530576408892,0.0411774229641439,0.0330009774687511,0.211924945537513,0.18457668616051,0.0609301098891036
0.00245178074859637,0.025025610071858,0.0485443435720352,0.0415619436764925,0.0335869163973569,0.218050552310833,0.184306040816736,0.0611244314718343
0.00222654336112155,0.0241030636362069,0.0463521182819281,0.0418757314477497,0.0341649715062673,0.223527072470347,0.183255425289455,0.0611152327284414
0.00203035920466229,0.0231878073835547,0.0443152020327341,0.0421200402492618,0.0347327630816268,0.228291823077312,0.181433608270621,0.0609004959632867
0.00186296436427704,0.022279291286841,0.0424716537571445,0.0422969730300242,0.0352873201488994,0.23229453887274,0.178861820838135,0.060481280365694
0.0017238092763049,0.0213773896593583,0.0408582106843889,0.042409393566013,0.035825133800489,0.235498054187798,0.175573407235574,0.059861726563361
0.00161208761500446,0.0204824857065563,0.0395097360507962,0.0424608214756316,0.0363422361187011,0.237878775024057,0.171613280655787,0.0590490124752761
0.00152676702724512,0.0195955383159416,0.0384586835773785,0.0424553113059529,0.0368343023046163,0.239426930949429,0.167037198674243,0.0580532628933269
0.00146662090022316,0.0187181307743346,0.0377345862829232,0.0423973181493334,0.0372967723995284,0.240146607938045,0.161910880144328,0.05688741578089
0.00143026046659537,0.0178525015222901,0.0373635763823342,0.0422915542418491,0.037724988105268,0.240055572144667,0.156308987183401,0.0555670469560286
0.00141616660559017,0.0170015567224636,0.0373679431471008,0.0421428424493786,0.0381143398332271,0.239184896859569,0.150313991966543,0.0541101536212241
0.0014227206887301,0.0161688640606442,0.0377657358863849,0.0419559726796134,0.0384604192066608,0.237578399570827,0.1440149420894,0.052536897878185
0.00144823382566552,0.0153586274875108,0.0385704186990115,0.0417355661044562,0.0387591725596393,0.235291889410721,0.137506135270721,0.0508693135817666
0.00149097394154709,0.0145756434448124,0.0397905824533096,0.0414859509044355,0.0390070510841274,0.232392225051419,0.13088571524892,0.0491309823380603
0.00154919025232379,0.0138252400776776,0.0414297185834463,0.041211053021119,0.0392011526811221,0.228956189942189,0.124254204431405,0.0473466858212329
0.00162113487464214,0.0131132016319072,0.0434860588489603,0.0409143057864275,0.0393393492843585,0.225069201859514,0.117712993381493,0.0455420411348773
0.00170508148407774,0.0124456804342768,0.0459524843671106,0.0405985824726172,0.0394203925132353,0.220823882692091,0.111362810858223,0.0437431244865709
0.00179934107875442,0.0118290985405773,0.0488165058778913,0.0402661551161426,0.0394439909760932,0.21631851852835,0.105302199352947,0.0419760878290119
0.00190227497193848,0.011270040635397,0.0520603163306942,0.0399186814177404,0.0394108543804699,0.211655437346998,0.0996260189975333,0.0402667738138329
0.00201230512748809,0.0107751394940896,0.0556609168331491,0.0395572199766439,0.0393227022059625,0.206939323942775,0.0944239984904023,0.0386403354770381
0.00212792194594604,0.0103509553545853,0.0595903170102615,0.0391822731304189,0.0391822371468057,0.202275486066282,0.0897793486648004,0.0371208674253087
0.0022476896723585,0.0100038507737699,0.0638158099648677,0.0387938558506155,0.0389930848239252,0.19776808646019,0.0857674542300835,0.0357310544235801
0.00237024971879619,0.00973986282144714,0.0683003200063831,0.0383915878917597,0.0387597010152063,0.193518361321046,0.082454661091292,0.0344918420018351
0.00249432233283403,0.00956457466631183,0.0730028189420833,0.0379748048250175,0.0384872472359357,0.189622853407255,0.0798971788303341,0.0334221331107132
0.002618707150338,0.00948298861443153,0.077878805046555,0.0375426826146444,0.0381814366492248,0.186171693991138,0.078140118993667,0.0325385147964262
0.00274228320468945,0.00949940241707058,0.0828808380813324,0.0370943703778683,0.0378483548660157,0.183246969140172,0.0772166889444595,0.0318550185011226
0.00286400891153162,0.00961729034694024,0.0879591237127218,0.0366291263909546,0.0374942629294289,0.180921201328856,0.0771475581532977,0.0313829165556318
0.00298292245585995,0.00983919045891326,0.0930621409505421,0.0361464524446879,0.0371253914054081,0.179255970408793,0.0779404098855783,0.0311305564160271
0.00309814293837919,0.0101665996736576,0.0981373061235852,0.0356462208342595,0.0367477344123043,0.178300693878382,0.0795896875813549,0.0311032339264698
0.00320887258696546,0.0105998786916764,0.103131665498885,0.0351287873881829,0.0363668511725639,0.178091586469275,0.082076542120649,0.0313031070622199
0.00331440026604,0.0111381690289311,0.107992605544226,0.0345950843258322,0.035987681487147,0.178650821380536,0.0853689833457111,0.0317291514564492
0.00341410639515098,0.0117793244609416,0.112668566697971,0.0340466885077514,0.0356143808034227,0.179985917750694,0.0894222365061929,0.032377158156562
0.00350746924080399,0.0125198588744694,0.117109745758604,0.0334858629486709,0.0352501799550988,0.1820893793647,0.094179301696183,0.033239773089931
0.0035940724145921,0.0133549122688855,0.121268774060918,0.0329155711709524,0.0348972739775176,0.184938607068681,0.0995717118991464,0.0343065774429037
0.00367361329164971,0.0142782366485785,0.125101362186645,0.0323394642784283,0.0345567436224103,0.18849610157169,0.105520482929752,0.0355642085004626
0.00374591192324322,0.0152822037036028,0.12856690493095,0.0317618400402408,0.0342285123631317,0.192709964684597,0.111937246225906,0.0369965209088828
0.00381091985868679,0.0163578362573917,0.131629040343871,0.0311875734276,0.0339113408044297,0.197514697046419,0.11872555282426,0.0385847882590197
0.00386872818131497,0.0174948652552972,0.134256153532265,0.0306220195360443,0.0336028594102718,0.202832280765485,0.125782333515796,0.040307944000443
0.00391957405320126,0.0186818135103872,0.13642181325193,0.0300708919925912,0.0332996391915392,0.208573526819689,0.132999495633103,0.0421428592217669
0.00396384514959115,0.0199061066956365,0.138105130690402,0.0295401218855265,0.0329972983821017,0.214639659660374,0.140265631375818,0.0440646535967536
0.00400208150335293,0.0211542113394077,0.139291034676885,0.0290357032298117,0.0326906414764438,0.220924105602742,0.147467807689287,0.0460470352572434
0.00403497439705526,0.0224117987599031,0.139970463089602,0.0285635307091286,0.0323738257777264,0.227314447730692,0.154493405079388,0.0480626653751185
0.00406336195281168,0.0236639329374254,0.140140473381231,0.0281292345681667,0.0320405499631774,0.233694508452202,0.161231972732525,0.0500835434913301
0.00408822099446566,0.0248952794747326,0.139804273843374,0.0277380171730514,0.0316842590179048,0.239946521170037,0.167577069262543,0.0520814097478991
0.00411065477026713,0.0260903321139046,0.138971172963037,0.0273944961178832,0.0312983600305992,0.24595335354788,0.173428060781927,0.0540281597575822
0.00413187634337406,0.0272336525568748,0.137656441873899,0.0271025593071011,0.0308764435037145,0.251600744317936,0.178691848506705,0.055896266520323
0.00415318782325203,0.0283101183783819,0.135881086825148,0.0268652376209087,0.0304125046222331,0.256779510843388,0.183284494790641,0.0576592017365886
0.00417595598227693,0.0293051729408481,0.133671533399106,0.0266846002478305,0.0299011580905559,0.261387676208876,0.187132711185301,0.059291847236783
0.00420158503251488,0.0302050710236644,0.131059229339489,0.0265616765919061,0.0293378392345236,0.265332459295023,0.190175170674032,0.0607708870642605
0.00423148735666929,0.0309971144970097,0.128080175627626,0.0264964071953886,0.0287189841544736,0.268532075066819,0.192363611535302,0.0620751720528587
0.0042670528984638,0.0316698734180587,0.124774394060844,0.0264876246277621,0.0280421830968001,0.270917304714715,0.193663710581565,0.0631860508862426
0.00430961789359066,0.0322133887242874,0.121185335690376,0.0265330639474745,0.0273063033160305,0.272432811618694,0.194055714624528,0.0640876635280955
0.00436043367284536,0.0326193526088804,0.117359232925827,0.0266294013540831,0.0265115795696281,0.27303819246095,0.193534825837041,0.0647671933345761
0.00442063630787445,0.0328812619400032,0.113344400920396,0.0267723189743214,0.025659671135183,0.272708756690316,0.192111336103317,0.0652150728063671
0.00449121784243225,0.0329945400069079,0.109190499174282,0.0269565930631133,0.0247536840110422,0.271436022874337,0.189810502023275,0.0654251367623833
0.00457299976409755,0.0329566230627082,0.104947769226936,0.0271762019543334,0.0237981572343584,0.269227919028234,0.1866721548055,0.0653947177805116
0.00466660927009553,0.0327670101134684,0.100666266293711,0.0274244490984268,0.0227990137907707,0.266108683221863,0.182750049452305,0.0651246818352407
0.00477245881348583,0.0324272763603855,0.0963951007862295,0.0276940961641438,0.0217634787361775,0.26211847665436,0.178110970766278,0.0646194056784997
0.00489072938987483,0.0319410518654565,0.0921817022064863,0.0279775017200158,0.0206999688843248,0.25731273624118,0.172833624126577,0.0638867000077157
0.00502135799261176,0.0313139669291273,0.0880711164357631,0.0282667621630218,0.0196179590334364,0.251761301050835,0.167007342486717,0.0629376826679349
0.00516402955658267,0.0305535648404052,0.0841053483277681,0.0285538527941617,0.0185278293297667,0.24554734393235,0.160730637473318,0.0617866043765837
0.00531817353840475,0.0296691824451634,0.0803227631446868,0.0288307676578078,0.0174406979298468,0.238766130976258,0.154109617607924,0.060450627984278
0.00548296516718396,0.0286717999589911,0.0767575612423896,0.0290896565459194,0.0163682430852424,0.23152362580957,0.147256295853741,0.0589495626205675
0.0056573314033295,0.0275738631482358,0.0734393396900265,0.0293229567099065,0.0153225187586938,0.223934955902777,0.140286811433533,0.0573055558368299
0.00583996170515327,0.0263890826263955,0.0703927520756885,0.0295235162992284,0.0143157674939496,0.216122761568537,0.133319594612595,0.0555427490691967
0.00602932373863082,0.0251322158495496,0.0676372740145908,0.0296847068058961,0.013360233510868,0.208215452168809,0.126473505888313,0.0536869034694399
0.00622368410912335,0.0238188371259127,0.0651870774900645,0.0298005225752693,0.0124679781612667,0.200345395777628,0.119865981609828,0.0517650036248498
0.00642113401462826,0.0224651001119333,0.0630510126979418,0.0298656663808911,0.0116506991377074,0.19264706620963,0.11361121590081,0.0498048455442934
0.00661961945312917,0.0210874968033587,0.0612326918670496,0.0298756208990008,0.0109195543894872,0.185255164491527,0.107818404023057,0.0478346133354611
0.00681697537358442,0.0197026171220216,0.0597306659086624,0.0298267064808986,0.0102849917258775,0.178302724587143,0.10259006700613,0.0458824479757082
0.00701096302255683,0.0183269134418497,0.0585386821361094,0.0297161257219446,0.0097565854268049,0.171919211273284,0.0980204743711346,0.0439760121539233
0.00719930970426176,0.0169764744277527,0.0576460100562089,0.0295419947642339,0.00934288150608515,0.166228622431795,0.0941941817934216,0.0421420567645591
0.00737975019107548,0.015666812230369,0.0570378224355998,0.0293033602165788,0.00905125329432187,0.16134761552169,0.0911847023162968,0.0404059963431673
0.00755006901277917,0.0144126664312172,0.0566956201280438,0.0290001999002448,0.00888776879296659,0.157383684097031,0.0890533313902698,0.0387915016638756
0.00770814272376336,0.0132278273071464,0.0565976907377142,0.0286334060075936,0.00885707121809984,0.154433411077112,0.0878481459416611,0.0373201173242594
0.00785198099897721,0.0121249801101475,0.0567195920564011,0.0282047505734623,0.00896227445685359,0.152580821637556,0.0876031951538676,0.0360109107234362
0.00797976523843703,0.0111155711979507,0.0570346505288175,0.0277168348324896,0.00920487556694561,0.151895856277943,0.0883378965626411,0.0348801576007806
0.00808988344352295,0.010209696058769,0.0575144633954548,0.0271730253514231,0.00958468666496102,0.152432987370319,0.0900566472035529,0.0339410688988065
0.00818096043765706,0.00941600868001138,0.0581293927786562,0.0265773801942065,0.0100997884209342,0.154230008066219,0.0927486564520655,0.0332035638207116
0.00825188287632467,0.00874165140846907,0.0588490418537252,0.0259345677324102,0.0107465070103915,0.157307027239962,0.0963880044502154,0.0326740940796549
0.00830181871154096,0.00819220441427581,0.0596427066933128,0.0252497798186488,0.0115194159535622,0.161665705590097,0.100933927385481,0.032355524170552
0.00833023071079663,0.00777165399134715,0.0604798009827672,0.0245286406648504,0.0124113638076747,0.167288765106861,0.106331328441991,0.0322470719225524
0.00833688346090373,0.00748237904006107,0.0613302529995955,0.0237771129096072,0.0134135282076453,0.174139797476417,0.112511511086752,0.0323443126237701
0.00832184335087058,0.00732515502467844,0.0621648740879489,0.0230014027267547,0.0145154963303296,0.182163388772885,0.119393129404589,0.0326392487017654
0.00828547138030546,0.00729917447771444,0.0629556966092472,0.0222078661840729,0.0157053713908361,0.191285569839544,0.126883348100861,0.0331204453402664
0.00822840912356557,0.00740208299893127,0.0636762795632171,0.0214029192389916,0.0169699042286238,0.201414594242048,0.134879201965593,0.0337732306219819
0.00815155861531782,0.00763002985503379,0.0643019822186062,0.0205929536184741,0.0182946486057803,0.212442038246635,0.143269140377823,0.0345799570544241
0.00805605716056945,0.0079777326275962,0.0648102088565337,0.0197842602641626,0.0196641386361425,0.224244209890117,0.151934736654514,0.0355203198506386
0.00794324802256828,0.00843855566556684,0.0651806296383468,0.0189829611101149,0.0210620866418762,0.236683847132243,0.160752535983315,0.0365717261335854
0.00781464769638768,0.00900460218437034,0.0653953826898168,0.0181949491339822,0.022471599419187,0.249612078775177,0.169596011115668,0.0377097083048168
0.00767191032897069,0.00966681966639106,0.0654392605873685,0.0174258362472701,0.0238754102359862,0.262870616803493,0.17833759264666,0.0389083741650598
0.00751678996092708,0.010415117936373,0.0652998815106287,0.0166809086292431,0.0252561231803601,0.276294145335475,0.186850740464704,0.0401408859898934
0.00735110156411788,0.011238499094728,0.0649678428242078,0.0159650893418998,0.0265964661711302,0.289712869184745,0.195012024197191,0.0413799605863112
0.00717668216999098,0.0121251983726084,0.064436853389207,0.0152829082353307,0.0278795490533349,0.302955182839293,0.202703181982464,0.0425983822050047
0.0069953535697857,0.013062834842154,0.0637038405619921,0.0146384790207927,0.0290891234224573,0.315850416073915,0.209813126777556,0.0437695197198382
0.00680888802129185,0.0140385707383199,0.0627690285446258,0.0140354829074126,0.0302098407122888,0.32823160318405,0.216239865605949,0.0448678383432031
0.00661897813805192,0.0150392779417876,0.0616359860821638,0.0134771577822897,0.0312275043652933,0.339938211765926,0.221892290202458,0.0458693945772849
0.00642721181755049,0.0160517099718459,0.0603116425712171,0.0129662919581033,0.0321293110462032,0.350818762087552,0.226691793014983,0.0467523022784291
0.00623505278980351,0.0170626776551404,0.0588062713901019,0.0125052218362298,0.0329040757249562,0.360733273581442,0.230573665329391,0.0474971584286498
0.00604382709865873,0.0180592264228188,0.0571334375197054,0.0120958329715238,0.0335424362205364,0.369555488801196,0.233488244161175,0.0480874192900243
0.00585471551041174,0.0190288128248677,0.0553099050696125,0.0117395638149049,0.0340370339906987,0.377174841352951,0.235401787848682,0.0485097202743649
0.00566875148732001,0.0199594772420094,0.0533555008254539,0.0114374113117776,0.0343826688543394,0.383498144597437,0.236297071356226,0.048754134931813
0.00548682400996035,0.0208400091463626,0.0512929321344138,0.011189937853398,0.0345764252902574,0.388450976017499,0.236173695600899,0.0488143688810381
0.00530968423176965,0.0216601010666313,0.0491475601617982,0.0109972794894492,0.0346177670879629,0.391978723957896,0.235048101162498,0.0486878836998178
0.00513795478920284,0.0224104878319835,0.0469471315193674,0.0108591553873102,0.0345085966648742,0.394047264751047,0.232953275646116,0.0483759460718455
0.00497214063085723,0.0230830685421708,0.0447214715446516,0.0107748783063026,0.0342532761397866,0.394643254002709,0.229938152761156,0.0478836000372843
0.00481264044387118,0.0236710096688719,0.0425021412441303,0.0107433658184102,0.0338586089462535,0.393774038735738,0.226066716823376,0.0472195640933
0.00465975804544687,0.0241688282559032,0.0403220588380388,0.0107631523076702,0.0333337825850594,0.391467216825594,0.221416842018316,0.0463960584575656
0.00451371332746932,0.0245724540017107,0.0382150873394922,0.0108324021721024,0.0326902742111905,0.387769877924666,0.216078904977141,0.0454285695405432
0.00437465237890345,0.0248792684001008,0.0362155914143428,0.0109489248450757,0.0319417206031196,0.382747553303428,0.210154208746114,0.0443355582463154
0.00424265632587664,0.0250881190030632,0.0343579689773519,0.0111101920986472,0.0311037531561993,0.376482890734085,0.203753249743784,0.0431381178479093
0.00411774845001037,0.0251993076274442,0.0326761645919173,0.0113133577758551,0.0301937982142205,0.369074068234517,0.196993855252353,0.0418595876005375
0.00399989936170252,0.0252145526612094,0.0312031720102467,0.0115552799917872,0.0292308438588938,0.360632968925636,0.189999220303478,0.0405251297544355
0.00388903033011622,0.0251369270411157,0.0299705324531804,0.0118325459973754,0.0282351758007519,0.351283152654533,0.182895876883255,0.0391612792148953
0.00378501518570727,0.0249707744647457,0.0290078349962214,0.0121415000706709,0.0272280865922952,0.341157671662272,0.175811632218099,0.0377954760008703
0.00368768141881947,0.024721606565177,0.028342226331729,0.0124782747160671,0.0262315633701892,0.330396781618181,0.168873514612726,0.0364555905066444
0.00359681114629137,0.0243959831546457,0.0279979384581806,0.0128388251134735,0.0252679593008145,0.319145592837154,0.162205763969798,0.0351694503758677
0.00351214251899045,0.0240013770406076,0.027995843526122,0.0132189665187951,0.0243596531629481,0.307551694055237,0.15592789940759,0.0339643759907263
0.0034333719904431,0.0235460250413793,0.0283530446839953,0.013614414336938,0.0235287011323865,0.295762773460462,0.15015288891683,0.0328667299382348
0.00336015773948476,0.0230387675796082,0.029082510814669,0.0140208266628945,0.0227964853411206,0.283924262995707,0.144985438488438,0.031901484798111
0.00329212442070568,0.0224888801719344,0.0301927623421896,0.0144338489356661,0.0221833647746317,0.272177038866088,0.140520413636137,0.0310918132088667
0.0032288692661258,0.0219059008528268,0.0316876147854514,0.0148491599258574,0.0217083349447981,0.260655218537377,0.136841405285708,0.0304587042702716
0.00316996938021291,0.0212994577983002,0.0335659859552776,0.0152625179336121,0.0213887030761828,0.249484097699205,0.134019453509121,0.0300206106913671
0.00311498990079848,0.0206791010365439,0.0358217714193484,0.0156698061033687,0.0212397851020608,0.238778266753638,0.132111944806272,0.0297931313404679
0.00306349259976087,0.0200541412635281,0.0384437913999233,0.0160670760748109,0.0212746298471281,0.228639936549969,0.131161699558582,0.0297887335954654
0.00301504450730882,0.0194334978882902,0.0414158109953414,0.0164505894979672,0.0215037749002768,0.219157493912065,0.131196264194975,0.0300165189635832
0.00296922625217586,0.0188255579478366,0.0447166345705122,0.0168168569294267,0.0219350380487509,0.210404303704156,0.132227417766226,0.0304820343894005
0.00292563995925523,0.0182380474855883,0.0483202742402221,0.0171626732232408,0.0225733476454278,0.202437774568262,0.134250898186373,0.0311871312656669
0.00288391665383565,0.0176779171981945,0.0521961913216796,0.0174851481986824,0.0234206148257022,0.195298706970657,0.137246351673622,0.0321298744497504
0.00284372312441913,0.0171512443877458,0.0563096081015267,0.0177817315740504,0.0244756500698668,0.189010942258834,0.141177509232351,0.033304504135889
0.00280476813053792,0.0166631532858508,0.060621885555631,0.018050231817757,0.0257341262311436,0.183581328534374,0.145992594739553,0.0347014537537973
0.00276680783013445,0.0162177554908153,0.0650909618651144,0.0182888292810212,0.0271885897812874,0.179000012860251,0.151624968943794,0.0363074267963416
0.00272965037588622,0.0158181115753263,0.0696718470280531,0.0184960842874837,0.0288285215494375,0.175241060185973,0.157994011517945,0.0381055344715225
0.00269315971714292,0.0154662141232581,0.0743171697955934,0.0186709405584807,0.0306404474733171,0.172263388981744,0.165006238715409,0.0400754944640599
0.00265725865990772,0.015162991849538,0.0789777733711644,0.0188127238705954,0.032608098739236,0.170012003719963,0.172556647300568,0.0421938893263337
0.00262193117083861,0.0149083341161272,0.0836033548756442,0.0189211357874251,0.0347126193722173,0.168419495592517,0.180530267786372,0.0444344814716786
0.00258722384875704,0.0147011349946316,0.0881431406381067,0.0189962427200621,0.0369328182505412,0.167407775115826,0.188803903617031,0.0467685805100764
0.00255324647590412,0.0145393559263923,0.092546586332039,0.0190384611266311,0.03924546180209,0.166889993751185,0.197248028510578,0.0491654577567608
0.00252017155211518,0.0144201058821587,0.0967640889663945,0.019048540001328,0.0416256032260997,0.16677260689744,0.205728811632543,0.0515928021408855
0.00248823265715957,0.0143397376363609,0.100747697010603,0.019027541653991,0.0440469438607916,0.166957528226018,0.214110239269287,0.0540172113625677
0.00245772141842336,0.0142939582902837,0.1044518055002,0.0189768211639956,0.046482222143878,0.167344325635101,0.222256301576194,0.0564047118264538
0.00242898287471579,0.0142779515112642,0.107833824554432,0.0188980043055372,0.0489036252851222,0.167832411665704,0.230033212702222,0.0587213003687718
0.00240240914137235,0.0142865082612236,0.110854811399797,0.0187929636197103,0.0512832179897004,0.168323184580279,0.237311630466765,0.0609334997533718
0.00237843144350917,0.0143141623152707,0.113480056149145,0.0186637926013842,0.0535933810487688,0.168722077968161,0.243968835945057,0.0630089180159732
0.00235751071366792,0.0143553267506802,0.115679609153437,0.0185127783922863,0.0558072506594415,0.168940474399105,0.249890824586054,0.064916799297417
0.00234012698252632,0.0144044278221324,0.117428734686829,0.0183423735964425,0.0578991480767046,0.168897434363781,0.25497425455638,0.0666285521316334
0.00232676775446954,0.0144560331260414,0.118708275722011,0.0181551675957469,0.0598449893977342,0.168521192503891,0.259128199750407,0.0681182412489426
0.00231791556775229,0.0145049714599632,0.119504918484498,0.0179538571346996,0.0616226668204071,0.16775038246075,0.262275664275496,0.0693630308397115
0.00231403503032196,0.0145464419795188,0.119811351682326,0.0177412155348276,0.0632123948845313,0.166534967244513,0.264354828717528,0.0703435701911479
0.00231555974202005,0.0145761100443245,0.119626321208365,0.0175200600503715,0.0645970168523782,0.16483686858452,0.265320010377382,0.0710443153742749
0.00232287959903002,0.0145901870623324,0.118954583990571,0.017293217434452,0.0657622663532524,0.162630300147558,0.265142323751447,0.0714537816808161
0.00233632899354891,0.0145854922579516,0.117806763283282,0.01706348839975,0.0666969779118038,0.159901812181197,0.263810023343588,0.0715647203696781
0.002356176370067,0.0145594954913616,0.116199105220966,0.0168336119750484,0.0673932393618803,0.156650053744413,0.261328509164818,0.0713742124257335
0.00238261550161885,0.0145103415317758,0.114153137740467,0.0166062305506142,0.067846481031854,0.15288526252816,0.25771998510825,0.0708836741093623
0.00241575873461277,0.014436857001654,0.111695238425307,0.0163838558482452,0.0680555002897692,0.148628502933728,0.253022779165555,0.0700987737988938
0.00245563234299091,0.0143385412933606,0.108856124538173,0.0161688357172691,0.0680224238167162,0.143910685757788,0.247290353937557,0.0690292649714134
0.00250217404090411,0.0142155424404797,0.105670283176804,0.0159633218149997,0.0677526119819609,0.138771412275512,0.240590047756198,0.0676887438278896
0.00255523261966266,0.0140686188520563,0.102175359943807,0.0157692387051443,0.0672545090747396,0.133257688410367,0.233001586874104,0.0660943405894664
0.00261456957896013,0.0138990881581455,0.0984115212827442,0.0155882554256496,0.066539441688116,0.127422551469805,0.224615403426556,0.0642663520085766
0.00267986251392287,0.013708764949401,0.0944208020837308,0.0154217609197394,0.0656213679625183,0.121323647388285,0.215530792963402,0.0622278222428564
0.00275070994540127,0.0134998896940913,0.0902464484930596,0.0152708447541874,0.0645165828628909,0.115021794089703,0.205853951165614,0.0600040809242362
0.00282663728027118,0.0132750514344155,0.0859322655521833,0.0151362842027103,0.0632433875827618,0.108579565461819,0.195695937087338,0.0576222497829958
0.00290710365626506,0.0130371069104594,0.0815219794303702,0.01501853815605,0.0618217327584121,0.102059928507866,0.185170615152475,0.0551107311052351
0.00299150953091783,0.0127890984818736,0.0770586241537007,0.0149177478044247,0.0602728444701333,0.0955249625965137,0.174392627497179,0.0524986916586553
0.00307920497287034,0.0125341726994243,0.0725839625909388,0.0148337438800363,0.0586188401658268,0.089034684661438,0.163475441962554,0.049815554279378
0.00316949865790364,0.0122755009492198,0.0681379505921443,0.0147660603612369,0.0568823409254111,0.0826459986591555,0.152529512114968,0.0470905069074643
0.00326166752803592,0.012016203491582,0.0637582510504997,0.0147139546974322,0.0550860871994757,0.0764117824588274,0.141660578108157,0.044352036896456
0.00335496696999804,0.0117592783739057,0.0594798016782143,0.0146764346166766,0.0532525660129028,0.0703801208503302,0.130968131993954,0.0416274973564828
0.00344864130258476,0.0115075369031584,0.0553344383336129,0.0146522913527767,0.0514036573117275,0.0645936891008212,0.120544067259603,0.038942711752762
0.00354193437524971,0.0112635474189631,0.0513505758363081,0.0146401387430488,0.0495603054314678,0.0590892873463525,0.110471529003414,0.0363216225253546
0.00363410015143852,0.0110295889018895,0.0475529495191166,0.0146384572439336,0.0477422200034049,0.0538975228898208,0.100823977675822,0.0337859887581
0.00372441324122627,0.010807615489593,0.0439624218025922,0.0146456415947426,0.045967610065462,0.0490426354775574,0.0916644753016836,0.0313551366455061
0.00381217941754569,0.0105992323721677,0.0405958577068802,0.0146600506048576,0.0442529551915103,0.0445424589475099,0.0830451982845715,0.0290457647911036
0.00389674615578888,0.0104056829577933,0.0374660714660415,0.0146800571857784,0.0426128171516562,0.0404085104999344,0.0750071754106536,0.026871804870596
0.0039775131483287,0.0102278467280284,0.0345818444383826,0.0147040962426834,0.0410596943934664,0.0366461968852083,0.0675802445548877,0.0248443373388253
0.00405394259308558,0.0100662468680126,0.0319480128888356,0.0147307077467552,0.0396039197480258,0.0332551260470785,0.0607832178517852,0.0229715614093235
0.00412556892707968,0.0099210665781705,0.0295656225906973,0.014758572609286,0.0382536002892157,0.0302295129154739,0.0546242426392604,0.0212588180059787
0.00419200761808526,0.00979217294050259,0.0274321453735458,0.0147865398286757,0.0370145978419293,0.0275586682138781,0.0491013436963909,0.0197086634843507
0.00425296263196878,0.00967914726189895,0.025541751007143,0.0148136444674103,0.0358905489932253,0.0252275587358136,0.0442031305521486,0.0183209909329478
0.00430823224462348,0.00958132083476942,0.023885626574436,0.0148391169318561,0.0348829239778681,0.0232174264649877,0.0399096515004355,0.0170931952985251
0.004357712944458,0.00949781490836332,0.0224523349946142,0.0148623844096423,0.0339911237822233,0.0215064524167932,0.0361933734061886,0.0160203784005696
0.00440140122989651,0.00942758334112621,0.0212282045286205,0.0148830651075873,0.0332126138750401,0.0200704494814403,0.0330202640782234,0.0150955897342486
0.00443939308122002,0.00936945616154808,0.0201977415379692,0.0149009556328078,0.032543091736901,0.0188835671185961,0.0303509525262078,0.0143100985109315
0.00447188077797045,0.00932218234217726,0.0193440589245664,0.0149160119818666,0.0319766847778876,0.0179189897908836,0.0281419417766069,0.0136536916768969
0.00449914669755275,0.0092844704573046,0.0186493122510365,0.0149283251019011,0.0315061753286931,0.0171496108930655,0.0263468487969769,0.0131149920130738
0.0045215538965532,0.00925502636576377,0.0180951349805783,0.0149380925825506,0.0311232495958062,0.0165486649346017,0.0249176461674494,0.0126817900064624
0.00453953359519517,0.00923258741220013,0.0176630642634281,0.0149455884899462,0.030818767270969,0.0160903028967268,0.0238058801414052,0.0123413828772632
0.0045535700025503,0.009215952688586,0.0173349491950624,0.0149511335255524,0.0305830476257376,0.0157500986362719,0.0229638393543899,0.0120809138064051
0.00456418307147514,0.009204008681095,0.0170933340236868,0.0149550675302704,0.0304061664763596,0.0155054771807229,0.0223456476128568,0.0118877039648143
0.00457190974582869,0.00919574950176186,0.0169218090049343,0.0149577258644954,0.0302782567447791,0.0153360578236203,0.0219082535571296,0.0117495693849575
0.00457728428410106,0.00919029111541383,0.0168053213330484,0.0149594205082032,0.030189803767374,0.0152239057633172,0.0216122903247421,0.0116551140602138
0.00458081845943065,0.00918687943220316,0.0167304378900397,0.0149604261340639,0.0301319250034161,0.0151536868985049,0.0214227797013143,0.0115939899483863
0.00458298274499785,0.00918489261938193,0.0166855506387014,0.0149609710970746,0.0300966223026679,0.0151127227257719,0.021309657120737,0.0115571138377868
0.004584189817841,0.00918383825607308,0.0166610145071264,0.0149612332125577,0.0300769934211773,0.0150909458434202,0.0212480954639375,0.0115368303449936
0.00458478173880529,0.00918334588236065,0.0166492066681619,0.0149613401966635,0.0300673880804647,0.0150807601596493,0.0212186062104357,0.0115270096752555
0.00458502206001261,0.00918315526979097,0.016644495375493,0.0149613745169378,0.0300634925662853,0.0150768123316261,0.0212068964139131,0.0115230682033595
0.00458509405649423,0.0091831007114159,0.0166431061539788,0.0149613819883664,0.0300623255995175,0.015075681847745,0.0212034604447043,0.0115218994191649
