APL,FCR,FDS,FDP,ED,EI,ECU,ECR
0.0187349386274633,0.0292105489010794,0.0189136396529701,0.183688815981997,0.0116809097346815,0.0177674785289211,0.204925559294016,0.0879626396120055
0.0205826854879614,0.03492044657107,0.0561467365591304,0.186899756151041,0.0173196720916463,0.039084391070447,0.217657921887438,0.0897972739434125
0.0222937729257095,0.0403870609823472,0.0922998681589153,0.189438529158106,0.0235976324546527,0.0596287718009175,0.229267226990179,0.0914216898169894
0.0238537729405936,0.0455752208629164,0.127110910695122,0.191264814808057,0.030509504401826,0.0792437272224244,0.239651855675052,0.0928127978628971
0.0252503973649055,0.0504546383346686,0.160336432720744,0.192348219255895,0.0380423795285609,0.0977846971569868,0.24872839017279,0.0939499855563579
0.0264737109135785,0.0550004629374814,0.191755525088345,0.192669120117129,0.0461753971310928,0.115121726640169,0.256433324915336,0.0948155032843811
0.0275162792888042,0.0591936826979441,0.221173019860369,0.19221926347092,0.0548795085443586,0.131141359121826,0.262724251991824,0.0953947855006782
0.0283732498049769,0.0630213643900077,0.248422042847163,0.191002089609792,0.0641173470292513,0.145748124716448,0.267580485557401,0.0956766967551347
0.0290423668303797,0.0664767358714598,0.273365885207689,0.189032783063848,0.0738432140833911,0.158865616363337,0.271003128247198,0.095653699229155
0.0295239276140388,0.0695591206054692,0.295899201441853,0.186338058262489,0.0840031925806151,0.170437153596695,0.273014611971894,0.0953219445844327
0.0298206852636735,0.0722737371061278,0.315948545617052,0.182955701611743,0.0945353959162861,0.180426035808594,0.273657759064867,0.0946812965662678
0.0299377052663313,0.0746313752985606,0.333472261757113,0.178933891960678,0.105370360281501,0.188815394648356,0.272994408578532,0.0937352907593713
0.0298821814380344,0.0766479610999964,0.348459759628618,0.174330316657371,0.11643158445155,0.195607669147667,0.271103648990632,0.0924910351142506
0.0296632173802735,0.0783440219295463,0.360930229225766,0.169211097116105,0.127636218194224,0.200823742067922,0.268079703820115,0.0909590527021167
0.0292915801841929,0.0797440688245275,0.370930866141296,0.163649540965708,0.138895896458454,0.204501786294454,0.264029529601044,0.0891530686528331
0.0287794338469616,0.0808759141411253,0.378534687094869,0.157724746123374,0.150117711487297,0.206695872144206,0.259070200109803,0.0870897457723144
0.0281400603681419,0.0817699462143668,0.383838008606694,0.151520091774248,0.161205309148936,0.207474381688915,0.253326160919812,0.084788376558258
0.0273875766027866,0.0824583827973699,0.386957653274106,0.145121658368962,0.172060090809304,0.206918272003617,0.246926440526559,0.0822705419732793
0.026536654540383,0.0829745231600018,0.388027948409923,0.138616620664904,0.182582499535254,0.205119229805799,0.240001897809416,0.0795597484225055
0.0256022517067642,0.0833520156138462,0.387197589005841,0.132091654170939,0.192673369466831,0.202177762906889,0.232682574586258,0.0766810533322286
0.0245993570808757,0.0836241550704574,0.384626442838801,0.125631389145565,0.202235318786136,0.198201275183429,0.225095212434241,0.0736606867403996
0.0235427567769712,0.0838232245044677,0.38048237263404,0.119316941314006,0.211174167872272,0.19330216837737,0.217360985944181,0.0705256731387962
0.0224468229579055,0.0839798939033409,0.37493813774922,0.113224545318889,0.219400362555168,0.187596006220855,0.209593497872503,0.0673034563838072
0.0213253288256654,0.0841226892555397,0.368168425342378,0.107424314647627,0.226830376410515,0.181199768539211,0.201897073249552,0.0640215310785994
0.0201912918217873,0.0842775415634898,0.360347056430148,0.101979149711539,0.233388058451014,0.174230218205681,0.19436537873739,0.0607070856096213
0.0190568462058242,0.0844674221103845,0.35164441349956,0.0969438134775765,0.239005888987269,0.166802401017681,0.187080381254267,0.057386663823054
0.017933145075211,0.0847120668003009,0.342225137406659,0.0923641911794521,0.243626109187758,0.159028295236486,0.180111647513409,0.0540858529530058
0.016830290961404,0.0850277901983264,0.332246137003146,0.0882767467832093,0.247201697607139,0.15101562176244,0.173515974540036,0.0508290042137567
0.0157572934903919,0.0854273885892886,0.321854943044466,0.0847081839936029,0.249697176439736,0.142866818716232,0.167337331643368,0.0476389903169397
0.01472205207438,0.0859201302746524,0.311188421580285,0.0816753143261984,0.251089237084135,0.134678179314435,0.16160708780173,0.0445370027841566
0.0137313609947154,0.0865118297385303,0.300371847455864,0.0791851298863619,0.25136717453721,0.126539150541636,0.156344494966089,0.0415423915674563
0.0127909335439731,0.087204999606283,0.289518327711906,0.0772350738525426,0.25053311385609,0.118531790065209,0.151557396286033,0.0386725493387047
0.0119054414756736,0.0879990706112367,0.278728556047157,0.0758134970350184,0.248602008452762,0.11073037736036,0.147243126581368,0.035942842187635
0.0110785661223668,0.0888906667118889,0.268090872110935,0.0749002848128144,0.245601396234321,0.10320117088048,0.143389568381731,0.0333665871886568
0.010313058069977,0.0898739216217781,0.257681593447897,0.0744676357602065,0.241570913722111,0.0960022984799462,0.139976321855748,0.0309550755690181
0.00961080290027749,0.0909408243714598,0.247565583956011,0.0744809712227947,0.236561584138242,0.0891837663703679,0.136975945952805,0.0287176384078076
0.0089728908783649,0.0920815841130414,0.237797020451699,0.0748999534430312,0.230634906090976,0.0827875729663658,0.134355233007035,0.0266617502240515
0.00839968841495251,0.0932850065957563,0.228420316581403,0.0756795878097575,0.223861770304463,0.0768479164623555,0.132076487211741,0.0247931645694834
0.00789090903787656,0.0945388748639887,0.219471158038061,0.0767713818845756,0.216321226216124,0.0713914870819608,0.130098784285157,0.0231160746702238
0.00744568194929137,0.0958303244075021,0.210977594661105,0.0781245308045322,0.208099118297156,0.0664378352933601,0.128379191548613,0.0216332910235118
0.00706261701028226,0.0971462008558296,0.20296113016019,0.079687097241567,0.199286617294436,0.0619998054226865,0.12687392544641,0.0203464268984098
0.00673986586419126,0.0984733890614917,0.195437755203958,0.0814071551846811,0.189978680274712,0.0580840213280175,0.125539423487004,0.0192560826322749
0.00647517956077759,0.0997991058835713,0.188418883528134,0.083233870195717,0.180272480324265,0.0546914094667894,0.124333312818384,0.0183620207109776
0.00626596328605961,0.101111153521511,0.181912167930575,0.085118493590414,0.17026584850593,0.0518177455535332,0.123215265744591,0.0176633254576247
0.0061093286818747,0.102398134033767,0.175922186334815,0.087015252680013,0.160055766238018,0.0494542132900639,0.122147739456452,0.0171585429557892
0.00600214401385867,0.103649627185467,0.17045099226212,0.0888821218123613,0.149736938650093,0.0475879663039956,0.121096599784397,0.0168457978152904
0.00594108227287705,0.104856332184808,0.165498522344062,0.0906814585118659,0.139400473582748,0.0462026866657896,0.120031626781859,0.01672288354545
0.00592266712366897,0.106010170176266,0.161062856437369,0.0923804884221635,0.129132687945054,0.0452791347818758,0.118926898312822,0.0167873238227975
0.00594331640775823,0.107104341588444,0.157140336823797,0.093951626412671,0.119014061469721,0.0447956858697695,0.117761050484445,0.017036403587608
0.00599938271994734,0.108133332615417,0.153725566877422,0.0953726296657977,0.109118355869253,0.0447288474346397,0.116517419412705,0.0174671711775015
0.00608719050838821,0.109092868180623,0.150811320339539,0.0966265890575639,0.0995119140669416,0.0450537508721064,0.115184073900339,0.0180764147074682
0.00620306926808707,0.109979813625923,0.148388396126874,0.0977017737706538,0.0902531493534492,0.0457446103179602,0.113753750007122,0.0188606169467638
0.0063433826923965,0.110792032304584,0.146445450365139,0.0985913476551729,0.0813922283826207,0.0467751439561704,0.112223695986355,0.0198158929082502
0.00650455400950947,0.111528209005363,0.144968831101809,0.0992929751509916,0.0729709455849636,0.0481189562819654,0.110595433700138,0.0209379138610641
0.00668308800643733,0.112187648147001,0.143942435524857,0.0998083347005509,0.0650227805474443,0.0497498825882912,0.108874443425514,0.022221821140476
0.00687559030106929,0.112770052618133,0.143347604347199,0.100142560842277,0.0575731245868825,0.0516422977420052,0.107069781844488,0.0236621330557573
0.00707878425962893,0.11327528803986,0.143163062439547,0.100303640424328,0.0506396581725851,0.0537713905645728,0.105193645715354,0.025252648365782
0.0072895257580461,0.113703139278689,0.143364909215055,0.100301790951549,0.0442328568926909,0.0561134048190774,0.103260894470874,0.0269863502255452
0.00750481591750463,0.114053069564914,0.143926657949775,0.100148848638933,0.0383566008279469,0.0586458481423676,0.101288542876614,0.0288553150685349
0.00772181200631253,0.114323995606239,0.14481932132703,0.0998576904459378,0.0330088614658394,0.0613476697981895,0.0992952310450596,0.0308506311832875
0.00793783683992054,0.114514093272549,0.146011541176792,0.099441709320701,0.0281824417727445,0.0641994068364998,0.0973006767872524,0.032962331343393
0.0081503871805558,0.114620647108808,0.147469762315218,0.0989143564099019,0.0238657477259704,0.0671832979538571,0.0953251161844407,0.0351793429103183
0.00835714178533361,0.114639953067687,0.149158451015048,0.0982887589793954,0.0200435718542613,0.0702833654670555,0.0933887414135814,0.0374894581007779
0.00855596981573612,0.114567278562375,0.151040355792784,0.0975774184037696,0.0166978701107105,0.0734854667727931,0.0915111481940375,0.0398793269076221
0.00874494024260079,0.114396879477728,0.153076803521788,0.0967919883061163,0.013808513942144,0.0767773159512194,0.0897108065745105,0.0423344752262945
0.00892233262526622,0.114122071402638,0.155228021907122,0.0959431282001995,0.0113540017273282,0.0801484745790344,0.0880045671087329,0.0448393507029963
0.00908664925480886,0.113735351851117,0.157453481315306,0.0950404235140886,0.00931211769148173,0.0835903110225148,0.0864072116392362,0.0473773983228652
0.00923662827557045,0.113228570884785,0.159712252743519,0.0940923603104544,0.00766053051303242,0.0870959302485877,0.0849310569193175,0.0499311664957685
0.00937125715577828,0.112593148442575,0.161963381685727,0.0931063430146193,0.00637732683571092,0.0906600799449865,0.0835856203711169,0.0524824426279976
0.00948978579510705,0.111820336921835,0.164166277567164,0.0920887455223337,0.0054414762833285,0.0942790411765699,0.0823773586899243,0.0550124158691233
0.00959173861972886,0.110901526345482,0.166281114255457,0.0910449890232652,0.00483322497790401,0.0979505112422071,0.0813094900493507,0.0575018644557976
0.00967692517428782,0.109828586217771,0.168269231296413,0.089979642156052,0.00453441510571361,0.101673483476559,0.0803819084722633,0.0599313655332004
0.00974544888677981,0.108594233286813,0.170093522665502,0.0888965391192323,0.00452872903000467,0.105448126024613,0.079591195025815,0.0622815257546354
0.0097977137411789,0.107192410007379,0.171718801737318,0.0877989089947968,0.00480185752429619,0.109275660119236,0.0789307261281772,0.0645332304341821
0.00983442843835473,0.105618656537254,0.173112136321575,0.0866895076521083,0.00534159275301318,0.113158237567304,0.0783908749185831,0.0666679072027713
0.00985660727991998,0.103870459935586,0.17424315284482,0.0855707447040643,0.00613784770585904,0.117098816720382,0.0779592977967591,0.0686677981834974
0.0098655667222801,0.101947567259794,0.175084310315655,0.0844448015212741,0.00718260499319786,0.12110103630576,0.0776212952420795,0.07051623419042
0.00986291654473533,0.0998522533560972,0.175611141268757,0.0833137403833847,0.00846979925221543,0.125169087023862,0.0773602331459269,0.0721979054484097
0.00985054486164195,0.0975895377356367,0.175802453427654,0.0821796077397334,0.00999513878786748,0.129307580864749,0.0771580078336894,0.0736991249416948
0.00983059666591557,0.0951673462593914,0.175640487831193,0.0810445352936783,0.0117558732408099,0.133521416118624,0.076995536454086,0.075008081552396
0.00980544603943727,0.0925966115932768,0.175111035668991,0.0799108410781971,0.0137505147469021,0.137815632270248,0.0768532558648729,0.0761150795533483
0.00977766240091372,0.0898913039094106,0.174203522844218,0.0787811293255179,0.0159785201743387,0.142195247203055,0.0767116166974898,0.0770127587691577
0.00974997105984701,0.0870683838524285,0.172911074388979,0.0776583837034699,0.0184399420978952,0.146665072098729,0.0765515627998442,0.0776962878678037
0.00972520808917852,0.0841476739659602,0.171230568267263,0.0765460448004174,0.0211350566709645,0.151229505699311,0.076354987566319,0.0781635236391753
0.00970626951078849,0.0811516507679441,0.16916268162391,0.0754480608442882,0.024063977339381,0.155892315632554,0.076105157351537,0.0784151315223004
0.00969605512885671,0.0781051652336184,0.166711927148564,0.0743689013188883,0.027226263933863,0.160656416542618,0.075787090982303,0.0784546656842179
0.00969740789955813,0.0750351027544866,0.163886675401068,0.0733135265210877,0.0306205366370448,0.165523651886595,0.0753878859418875,0.0782886089558936
0.00971305027929632,0.0719699937360287,0.160699159844824,0.0722873112595732,0.0342441036237779,0.170494583087398,0.0748969857464043,0.0779263725703549
0.00974551934840808,0.0689395835691481,0.157165463431379,0.0712959258657888,0.0380926103449096,0.175568290831437,0.0743063876260417,0.0773802533429913
0.00979710252549622,0.0659743683147954,0.153305487392449,0.0703451802179317,0.042159717715126,0.180742197747191,0.0736107930304767,0.0766653443128115
0.00986977542109284,0.0631051018321991,0.149142902969664,0.0694408359864077,0.0464368155179142,0.18601192614113,0.0728077043015749,0.0757993955981177
0.00996514315148236,0.0603622810240542,0.144705083885903,0.0685883917440048,0.0509127759150163,0.191371205950346,0.0718974691195936,0.0748026247532019
0.010084386479731,0.0577756176226462,0.140023011583886,0.0677928477555455,0.0555737506103177,0.196811845032992,0.0708832723625423,0.0736974789621054
0.0102282144019258,0.0553735068656675,0.135131140033152,0.0670584614058994,0.0604030147074026,0.202323766655051,0.0697710749619373,0.0725083537015985
0.0103968250595981,0.0531825049747562,0.130067205968557,0.0663885080985893,0.0653808606495937,0.207895110399694,0.0685695010225126,0.071261272982517
0.0105898769527538,0.0512268280583528,0.124871974122402,0.0657850642593585,0.0704845462960451,0.213512386361429,0.0672896768080821,0.0699835345836977
0.0108064722478469,0.0495278845057505,0.119588913274293,0.0652488281686199,0.0756883012754176,0.219160669950517,0.0659450271608686,0.0687033214077609
0.0110451535387842,0.0481038511060643,0.114263804468129,0.0647789915278776,0.080963394430434,0.22482382579863,0.0645510356837358,0.0674492796626827
0.0113039148548173,0.0469693009603425,0.108944284290077,0.064373171397352,0.0862782628654481,0.230484752768607,0.0631249739977619,0.0662500665643977
0.0115802271128162,0.046134889938009,0.103679324156687,0.0640274088286459,0.0915987017475871,0.236125645218306,0.0616856031680621,0.0651338736722829
0.011871077614068,0.0456071080711403,0.0985186466908523,0.0637362369769341,0.0968881145009446,0.241728264932922,0.0602528491056743,0.0641279353520687
0.0121730226460401,0.0453881023311316,0.0935120852342811,0.0634928179692997,0.102107824590893,0.247274211982266,0.058847454612617,0.0632580337183661
0.0124822517690234,0.0454755771024428,0.0887088994621538,0.0632891443880339,0.10721745121007,0.252745176206667,0.0574906129292038,0.0625480108831836
0.0127946618619572,0.0458627779197611,0.0841570647426707,0.0631162978641858,0.112175350304149,0.258123151130264,0.0562035894990034,0.0620192976050035
0.0131059384487381,0.0465385624666613,0.0799025530947146,0.0629647546040153,0.116939119148943,0.263390599459384,0.055007338741676,0.0616904669651221
0.0134116414253234,0.0474875605801061,0.0759886212471385,0.0628247263242569,0.121466159211571,0.268530569590383,0.0539221211831815,0.0615768230160687
0.0137072922862547,0.0486904225278477,0.0724551199574918,0.0626865250928901,0.125714290239651,0.273526769622135,0.052967125520177,0.0616900361654745
0.0139884603276076,0.0501241523857036,0.069337838678659,0.0625409415893229,0.129642407544221,0.278363604267442,0.0521601011237479,0.0620378378967703
0.0142508459116491,0.0517625208020629,0.0666678993748704,0.0623796276453716,0.133211172062058,0.28302617311862,0.0515170081058139,0.0626237864123988
0.0144903594137074,0.0535765488269693,0.0644712121346545,0.0621954747471552,0.136383718598212,0.287500225921557,0.0510516928638166,0.0634471123371394
0.0147031946098707,0.0555350521906697,0.0627680035374873,0.0619829796398899,0.139126364583485,0.291772076189792,0.0507755961762605,0.0645026511019677
0.0148858949825724,0.0576052337453794,0.0615724271201398,0.0617385862139809,0.141409301227783,0.295828484343796,0.0506974994951029,0.0657808663996487
0.0150354112447347,0.0597533107826702,0.0608922640252196,0.0614609910670161,0.14320724864018,0.299656528723017,0.0508233146625441,0.0672679665053899
0.0151491487363374,0.0619451634354985,0.0607287206516941,0.0611514002971337,0.144500053681204,0.303243481653305,0.0511559226057479,0.0689461121948874
0.0152250041201131,0.0641469899109042,0.0610763281991282,0.0608137273829044,0.14527320643768,0.30657669943976,0.051695066319236,0.070793712276856
0.0152613916744959,0.0663259531627464,0.061922946530107,0.0604547256588952,0.145518253216943,0.309643529461665,0.0524373019432088,0.0727858007113104
0.0152572601454633,0.0684508015691763,0.0632498731037938,0.0600840527245413,0.145233090778806,0.312431239908954,0.0533760097288788,0.0748944873092861
0.0152121013548614,0.0704924446977302,0.0650320574643618,0.0597142668216521,0.144422133790091,0.314926983991967,0.0545014648582543,0.0770894713725574
0.015125951491151,0.072424466179257,0.067238422172739,0.0593607557442125,0.143096350361232,0.317117813418011,0.0558009660770708,0.0793386047776095
0.014999385440196,0.0742235593217145,0.069832291123578,0.0590415974005042,0.141273158749325,0.318990750505123,0.0572590182725632,0.08160848959292
0.0148335041086289,0.0758698762510198,0.0727719252324151,0.0587773498555369,0.138976178589485,0.320532917748839,0.0588575645104579,0.0838650960272791
0.0146299146821965,0.0773472861400696,0.0760111634301003,0.0585907693027049,0.13623483670121,0.321731717450993,0.0605762634287703,0.0860743884869597
0.0143907040725101,0.0786435403824286,0.0795001641118379,0.0585064568527099,0.133083837856739,0.322575055053217,0.062392808061626,0.0882029491298227
0.0141184062652195,0.0797503419389344,0.0831862390799226,0.0585504384766548,0.129562519622158,0.323051603811839,0.0642832810613146,0.0902185879048376
0.0138159647030206,0.0806633156636137,0.0870147687878111,0.0587496860078803,0.125714113331278,0.323151109538492,0.0662225392459466,0.09209092569581
0.0134866910535123,0.0813818792951991,0.0909301842242716,0.0591315899070789,0.121584931101545,0.322864727900935,0.0681846191553295,0.0937919356151898
0.0131342216101454,0.0819090204876031,0.094876996796782,0.0597233957042045,0.117223497549306,0.322185375446291,0.0701431556789338,0.0952964288650223
0.0127624721327082,0.0822509914777564,0.0988008532407624,0.060551615238491,0.112679647470668,0.321108068599323,0.0720718073420047,0.0965824753716146
0.0123755913434684,0.0824169374924716,0.102649589061749,0.0616414221297868,0.108003614776138,0.319630227352992,0.0739446836837433,0.097631753785791
0.01197791288725,0.0824184762916818,0.106374252671776,0.0630160405772962,0.103245140271213,0.317751929124516,0.0757367715899895,0.0984298282098854
0.0115739054811292,0.0822692443626649,0.109930073835397,0.064696138386833,0.0984526248871835,0.315476107117482,0.0774243578690141,0.0989663485574604
0.0111681211801878,0.0819844224377196,0.113277353773687,0.066699238200021,0.0936723509121837,0.312808690020812,0.0789854443607298,0.0992351691744925
0.010765142064075,0.081580251462461,0.116382258339032,0.0690391637770741,0.0889477884187407,0.309758673290839,0.0804001492945289,0.0992343803085016
0.0103695260575927,0.0810735499906717,0.119217497262101,0.071725539449744,0.0843189992475188,0.306338104424132,0.081651085231517,0.0989662506773681
0.00998575285801321,0.0804812444209639,0.121762870902373,0.0747633597914194,0.0798221469975235,0.302561966610404,0.0827237014278039,0.0984370849386977
0.00961817089585595,0.0798199238915397,0.124005665693516,0.0781526440092801,0.0754891183224966,0.298447957602234,0.0836065778844456,0.0976570044589848
0.00927094594802914,0.0791054316603011,0.125940884672366,0.0818881871967774,0.0713472583919034,0.294016176690758,0.0842916598634922,0.096639660998914
0.00894801179505302,0.078352504229696,0.127571308779436,0.085959418484024,0.0674192215322455,0.289288744092456,0.0847744249630594,0.0954018909379437
0.00865302338700796,0.0775744681587832,0.128907393713827,0.0903503733049258,0.0637229364629763,0.284289377896826,0.0850539791750862,0.0939633162979506
0.00838931324853199,0.0767830022179417,0.129967011653599,0.0950397833443941,0.0602716836720838,0.279042945608603,0.0851330823643642,0.0923459006161682
0.00815985211615707,0.0759879691705281,0.130775046235907,0.100001284263489,0.0570742799516907,0.273575000439029,0.0850181056839811,0.0905734713768683
0.00796721491557747,0.0751973175763844,0.131362848148987,0.105203738242234,0.0541353618851112,0.267911312883063,0.0847189225869553,0.0886712237790468
0.00781355307965961,0.0744170507720787,0.131767562205176,0.110611664797728,0.0514557564375217,0.262077413161735,0.0842487329935648,0.0866652211476449
0.00770057390264282,0.0736512581272805,0.132031343425734,0.116185768975645,0.049032923195708,0.256098165425407,0.083623820329655,0.0845819048941643
0.00762952728100395,0.0729022026381484,0.132200485644703,0.121883552385188,0.0468614497385328,0.249997397248281,0.0828632446118373,0.0824476236350516
0.00760119995912368,0.0721704585787141,0.132324488227864,0.127659990940878,0.0449335798189608,0.243797606683873,0.081988480088443,0.0802881891520605
0.00761591726412721,0.071455092997479,0.132455083756035,0.133468263422161,0.0432397542240393,0.237519763912859,0.0810230110549106,0.0781284663441866
0.00767355217412102,0.0707538850467353,0.132645244652287,0.139260516182557,0.0417691464392889,0.231183215494156,0.0799919024861486,0.0759920042128868
0.00777354132177994,0.0700635771482932,0.13294818327084,0.144988650366201,0.0405101786437736,0.224805687567353,0.0789213620323888,0.0739007145015521
0.00791490722473237,0.0693801514025461,0.133416358270401,0.150605117455384,0.0394510064219609,0.218403373985106,0.0778383071363748,0.0718746034835864
0.00809628581508057,0.0686991229458797,0.134100499146364,0.156063705660612,0.0385799615351382,0.211991090136101,0.0767699474326456,0.0699315603646764
0.00831595824677359,0.0680158392080328,0.135048660133811,0.161320294387759,0.0378859420147482,0.205582473603368,0.075743389368476,0.0680872027562462
0.00857188585296393,0.0673257717286706,0.136305314249935,0.166333550712186,0.0373587403614042,0.199190217033887,0.0747852667711855,0.0663547762329446
0.00886174690370613,0.0666247870543378,0.137910497534774,0.17106554343721,0.0369893045227374,0.192826324021816,0.0739213975278257,0.0647451025359976
0.00918297365424343,0.0659093855170265,0.139899011269329,0.175482256679049,0.0367699312115104,0.186502382606838,0.0731764630342088,0.0632665704456095
0.0095327883276027,0.0651769006064138,0.142299685532441,0.179553993666746,0.0366943951499198,0.180229850772211,0.0725737045578128,0.061925164433238
0.00990823710653223,0.0644256558477186,0.145134703984181,0.183255668907107,0.0367580196193016,0.174020343149559,0.0721346301452941,0.0607245278177021
0.0103062216565285,0.0636550790226272,0.148418990976762,0.186566989180936,0.0369576936158415,0.167885900948172,0.0718787276362341,0.0596660578046551
0.0107235278657719,0.0628657740181621,0.152159667637207,0.189472520450236,0.0372918411244848,0.161839223639691,0.0718231831360356,0.0587490286731725
0.0111568513480291,0.0620595491260803,0.156355590031793,0.191961634855514,0.0377603495337502,0.155893843490642,0.0719826082943794,0.0579707379031851
0.0116028192278386,0.0612393999319825,0.160996985717461,0.194028335426399,0.0383644661065896,0.150064231203112,0.0723687817994771,0.057326670281251
0.0120580080944824,0.0604094465267474,0.166065202912981,0.195670965093763,0.039106672489949,0.144365829650837,0.0729904097990766,0.0568106767844114
0.0125189586249008,0.0595748278830115,0.171532582978295,0.196891816976519,0.0399905468739354,0.138815019210613,0.0738529088579577,0.0564151666918297
0.0129821879386205,0.0587415595374463,0.177362466971791,0.197696670266141,0.0410206220601398,0.133429019347746,0.0749582161215729,0.0561313114382742
0.0134442009885988,0.0579163631427653,0.183509350273548,0.198094276938032,0.0422022464474462,0.128225728175094,0.0763046340301954,0.0559492571939363
0.0139015020919326,0.0571064773837193,0.189919202156535,0.198095819338482,0.0435414540808693,0.123223501140228,0.0778867193970059,0.0558583418889792
0.014350607294705,0.0563194589719267,0.196529966948327,0.197714353554324,0.045044849049597,0.118440874883249,0.0796952276101737,0.0558473125771225
0.0147880580397928,0.0555629802635892,0.203272259075578,0.196964253273041,0.0467195083558773,0.113896249690057,0.081717121774324,0.0559045400113931
0.0152104366404469,0.0548446277310227,0.210070256507225,0.19586067249032,0.0485729058370435,0.109607549366129,0.0839356542367183,0.0560182278851295
0.0156143841995551,0.0541717043295066,0.216842787199602,0.194419049524573,0.0506128579021967,0.105591877855198,0.0863305249979009,0.0561766134354059
0.0159966217001148,0.053551038914316,0.223504592053543,0.192654676233719,0.0528474898742676,0.101865188680779,0.088878118661483,0.0563681544231192
0.0163539749353628,0.0529888068167768,0.229967736835347,0.190582353148808,0.0552852196717989,0.098441980333517,0.0915518189414345,0.0565816968248703
0.016683403703458,0.0524903668436912,0.236143136836068,0.18821614365532,0.0579347533466335,0.0953350290279673,0.0943223968340873,0.0568066188337594
0.0169820352235083,0.0520601206741407,0.241942153840704,0.185569231793376,0.0608050844616928,0.092555168028303,0.0971584648020313,0.0570329490667781
0.0172472010345479,0.0517014003815553,0.247278225748157,0.182653882211051,0.0639054867206368,0.0901111191019949,0.10002698525451,0.0572514585482923
0.0174764759152489,0.0514163883592934,0.2520684933725,0.179481497662314,0.0672454875756502,0.0880093773450562,0.1028938188978,0.0574537258400638
0.0176677169325366,0.0512060715996667,0.256235393037222,0.176062768117778,0.0708348105145077,0.0862541471329504,0.105724298056867,0.0576321736133403
0.0178191007232983,0.0510702300738365,0.259708183099946,0.172407904816962,0.0746832755254158,0.0848473253269158,0.108483811614776,0.0577800754846522
0.0179291574650426,0.0510074575852944,0.262424366119635,0.168526951075972,0.0788006503731263,0.0837885278422862,0.111138390904746,0.0578915344833017
0.0179968005048187,0.0510152129096991,0.264330962908365,0.164430157903652,0.0831964486366089,0.0830751556593259,0.113655288385709,0.057961437465598
0.0180213510054491,0.05108989903168,0.265385598192202,0.160128405921203,0.087879672329575,0.0827024947417213,0.116003541694669,0.0579853911878462
0.0180025569332009,0.05122696851843,0.265557369843771,0.1556336484835,0.0928584962491622,0.0826638423604961,0.118154513584831,0.0579596450385046
0.0179406052387644,0.0514210531283609,0.264827488974053,0.150959348396032,0.098139889731636,0.082950652985107,0.120082394430672,0.0578810046644709
0.0178361257503805,0.0516661151787075,0.263189689218842,0.146120883119128,0.103729172887636,0.0835527002876856,0.12176465199536,0.0577467415596779
0.0176901856237416,0.0519556166486775,0.260650404708218,0.14113589895006,0.109629509818297,0.0844582554358933,0.123182415023285,0.0575545050281241
0.0175042740882515,0.0522826999266401,0.25722871067436,0.136024600162927,0.115841349367125,0.085654283101626,0.124320782151197,0.0573022429533214
0.017280278283597,0.0526403728232837,0.252956020117038,0.13080996100323,0.122361832155959,0.0871266550290314,0.125169053464726,0.0569881362682533
0.0170204517273918,0.05302169065889,0.247875539166955,0.125517845971791,0.129184188196087,0.0888603793711298,0.125720886053939,0.0566105506175232
0.0167273770524882,0.0534199295824809,0.242041498131832,0.120177022090204,0.136297150194177,0.0908398441001121,0.125974374903705,0.0561680080563144
0.0164039242111835,0.0538287469800992,0.235518188009992,0.114819050926698,0.143684404979101,0.0930490729350894,0.125932057210378,0.0556591805899608
0.0160532049968077,0.0542423258141548,0.228378838115555,0.109478057139134,0.151324104013493,0.0954719905167841,0.125600836398865,0.0550829054324323
0.0156785248319883,0.0546554991780304,0.220704367248952,0.104190380001482,0.159188455946809,0.0980926913279166,0.124991824410208,0.0544382203031031
0.015283333111828,0.0550638499483238,0.212582033093321,0.098994120484624,0.167243427603402,0.100895706568183,0.124120105856315,0.0537244166797662
0.0148711736609375,0.0554637802541749,0.204104000488249,0.0939285970324363,0.175448581541576,0.103866263855442,0.123004432670374,0.0529411088476301
0.0144456368898905,0.0558525473307857,0.195365851177264,0.0890337218316343,0.183757076071681,0.106990533630545,0.121666860275861,0.0520883156556409
0.0140103150153561,0.0562282652643055,0.186465062573098,0.0843493112709169,0.192115847057283,0.110255854280363,0.120132334629201,0.0511665501359394
0.0135687613450257,0.0565898747246599,0.177499487646259,0.0799143491836597,0.200465981687433,0.113650929181116,0.118428235954822,0.0501769111689569
0.0131244542251574,0.0569370837079386,0.168565869941426,0.0757662260781183,0.208743284586991,0.11716599362986,0.11658388413109,0.0491211720823406
0.012680765806016,0.0572702812857675,0.159758425920119,0.0719399792127166,0.216879027756566,0.120792954584006,0.114630013613393,0.0480018627207535
0.0122409352345641,0.0575904251315913,0.151167521227949,0.0684675566853463,0.224800869425928,0.12452550752741,0.1125982301068,0.0468223427677544
0.0118080453690246,0.0578989040796387,0.1428784595113,0.0653771260006719,0.232433922618688,0.128359232584149,0.110520463695802,0.0455868638759445
0.0113850019672764,0.0581973791100069,0.134970395439037,0.0626924456692192,0.239701949814491,0.132291670488322,0.108428431836831,0.0443006169653083
0.0109745146406442,0.0584876088098226,0.127515379838441,0.0604323165339838,0.246528652961313,0.136322379630915,0.1063531225735,0.0429697608166335
0.0105790794820373,0.0587712672858896,0.120577543830962,0.0586101268109138,0.252839019335223,0.140452975063925,0.104324307524116,0.0416014295125869
0.0102009638264941,0.0590497627249078,0.114212429023526,0.0572335018125494,0.258560679208277,0.14468714688284,0.102370095781816,0.0402037184723421
0.00984219377164458,0.0593240632206576,0.108466470738208,0.0563040666843425,0.263625234310019,0.149030650954464,0.100516541245366,0.0387856506111876
0.00950454487228351,0.0595945345832025,0.10337664015448,0.0558173278251825,0.267969524865601,0.153491261449904,0.0987873148042014,0.0373571246715643
0.00918953621939192,0.0598607941484829,0.0989702490846374,0.0557626759274261,0.271536812844095,0.158078670484327,0.0972034491700413,0.0359288468728913
0.00889842811999338,0.0601215850919101,0.0952649183233944,0.0561235114420495,0.274277864040108,0.16280431646248,0.0957831604050874,0.0345122457608944
0.00863222359238939,0.0603746766378079,0.0922687073634856,0.0568774917076806,0.276151908161887,0.167681124225278,0.0945417478327888,0.0331193697521849
0.00839167367449397,0.0606167961000168,0.0899803995146278,0.0579968972241355,0.277127449828586,0.172723147511534,0.0934915720673755,0.0317627674929791
0.00817728621703416,0.0608435983836936,0.0883899319585062,0.0594491120648731,0.27718290491275,0.177945113184845,0.0926421079227541,0.0304553523145599
0.00798933757375969,0.0610496772034632,0.0874789561899027,0.0611972102868651,0.276307047923529,0.18336187124417,0.0920000649183745,0.0292102532923122
0.00782788633840638,0.0612286198553861,0.0872215120738358,0.0632006369028612,0.274499271178283,0.188987753102634,0.0915695647440117,0.0280406562895843
0.00769278804711208,0.0613731042974113,0.0875847983458109,0.0654159690244657,0.271769667425508,0.194835839934191,0.0913523631192097,0.0269596385453318
0.00758370982056934,0.0614750344003782,0.0885300228307586,0.067797740263291,0.268138948455108,0.200917149636978,0.0913481015911462,0.0259799996891991
0.0075001443071842,0.0615257073001209,0.090013315960779,0.0702993089088821,0.263638205561383,0.207239763601951,0.0915545719954934,0.0251140909758995
0.00744142277675419,0.061516006099866,0.0919866907964438,0.0728737478082227,0.258308514461595,0.213807927755524,0.0919679747297458,0.0243736438362684
0.00740672751095742,0.0614366116663066,0.0943990318402139,0.075474732681095,0.252200392352431,0.220621170985981,0.0925831540390411,0.0237695987999469
0.00739510361092757,0.06127822847484,0.0971970941169637,0.0780574067743808,0.24537312394241,0.227673484588912,0.0933937980409258,0.0233119362518857
0.00740547023038211,0.0610318205579484,0.100326493841641,0.0805792024533733,0.237893980109011,0.234952600304597,0.094392594814897,0.023009511130915
0.00743663135743539,0.0606888536108861,0.103732672278653,0.0830006024710884,0.22983735239851,0.242439398472706,0.0955713361622226,0.0228698944038342
0.00748728658721006,0.0602415377353276,0.107361813864851,0.0852858234613355,0.221283819368444,0.250107474590663,0.0969209602805351,0.0228992247830608
0.00755604265515535,0.0596830633164684,0.111161697253931,0.0874034031667925,0.21231915443405,0.257922889154916,0.0984315283375068,0.0231020744883095
0.00764142666966522,0.0590078219824502,0.115082455656078,0.0893266748440082,0.203033284855506,0.265844119065419,0.10009213769175,0.023481332664035
0.00774190191116994,0.058211605843446,0.119077224417189,0.0910341180329132,0.193519215813057,0.273822218846357,0.10189078267968,0.0240381093221844
0.00785588677249145,0.0572917804969972,0.123102660046159,0.0925095822445935,0.183871937673551,0.281801188969413,0.103814178629173,0.0247716618396724
0.00798177700090518,0.0562474296205293,0.127119323977452,0.0937423860631379,0.174187334621566,0.289718540154,0.105847564670701,0.0256793456567151
0.00811797096902332,0.0550794704005421,0.13109193328268,0.0947272962251754,0.164561107560606,0.297506038872464,0.107974499461883,0.0267565909495235
0.00826289732095587,0.0537907388612052,0.134989486241612,0.0954643898626796,0.155087717755971,0.305090619775282,0.110176665219654,0.0279969074179121
0.00841504402790671,0.0523860424589068,0.138785271145218,0.0959588024571214,0.145859355505016,0.31239545187595,0.112433698895945,0.029391919576869
0.00857298757383589,0.0508721757130671,0.142456763508354,0.096220366903965,0.136964940363612,0.319341142239504,0.114723072138906,0.0309314347265721
0.00873542067804344,0.049257894757108,0.145985415260857,0.0962631544327885,0.128489163221194,0.325847051514282,0.117020041677187,0.0326035449140275
0.00890117685578952,0.0475538486042308,0.149356342261272,0.0961049337694174,0.120511582803537,0.33183268598928,0.119297688344427,0.0343947629494209
0.00906925037211435,0.045772467825636,0.152557922545563,0.0957665688660568,0.113105787959036,0.337219128746141,0.121527057207322,0.0362901913906664
0.00923881065428778,0.0439278141158041,0.155581324787102,0.0952713764309151,0.106338632646056,0.341930478209366,0.123677404729315,0.0382737223475634
0.00940921070973125,0.0420353957502343,0.158419992061597,0.0946444621395529,0.100269546410993,0.345895271738998,0.125716552492765,0.0403282646315623
0.00957998925742095,0.0401119536488679,0.161069107933206,0.0939120504073349,0.0949499221480331,0.34904787984948,0.127611341371881,0.0424359933408954
0.00975086616925988,0.0381752216048694,0.163525068964315,0.0931008193797913,0.09042258452933,0.351329858653126,0.129328174923149,0.0445786161171419
0.00992173088309165,0.0362436640728696,0.165784982355898,0.0922372512235961,0.0867213449203596,0.352691241323295,0.130833635165492,0.046737650249768
0.0100926238967544,0.0343361961566661,0.167846204267561,0.0913470075881131,0.083870650220599,0.353091736630966,0.132095148543452,0.0488947050438777
0.0102637120713135,0.0324718922702525,0.169705934689895,0.0904543407942833,0.0818853327323174,0.35250179400946,0.133081677173244,0.0510317635781574
0.0104352589423029,0.0306696914023258,0.171360886268353,0.0895815522943764,0.0807704655561677,0.350903496632952,0.133764411469054,0.05313145675759
0.0106075913246687,0.0289481073209245,0.17280704418713,0.0887485104845815,0.080521324542957,0.348291255077836,0.134117443783352,0.0551773215033288
0.0107810632672386,0.0273249512825601,0.174039530054386,0.0879722392805288,0.0811234556840921,0.344672288522345,0.134118406450655,0.0571540355074913
0.0109560182683847,0.0258170734880512,0.175052575830975,0.0872665864377306,0.0825528465757707,0.340066890488194,0.133749058892741,0.0590476232560722
0.0111327508176695,0.0244401284436459,0.175839607940986,0.0866419767705035,0.0847762015507225,0.334508475385664,0.132995805919354,0.0608456309400791
0.0113114686255987,0.0232083685910226,0.176393437698907,0.0861052519273449,0.08775132131164,0.328043393699098,0.131850126349561,0.0625372700040496
0.0114922570864446,0.0221344697382311,0.176706549674518,0.0856595965188949,0.0914275885510881,0.32073050152033,0.130308892729619,0.0641135292356202
0.011675047393036,0.0212293907549512,0.176771473024454,0.0853045499316472,0.0957465603919722,0.312640480822349,0.128374569932824,0.0655672538653751
0.0118595893580202,0.0205022686973598,0.176581214969574,0.0850361032209876,0.10064266608947,0.30385492447929,0.126055289833583,0.0668931894530201
0.0120454297311693,0.0199603491747125,0.176129734067333,0.0848468801451141,0.106044004458304,0.294465214921342,0.123364806963093,0.0680879897161141
0.0122318967822851,0.0196089506126948,0.175412432798807,0.0847263999550887,0.111873231163987,0.28457122957541,0.120322342656017,0.0691501901937414
0.0124180919895534,0.0194514603153913,0.174426650307246,0.0846614166313153,0.118048522679398,0.274279899757113,0.116952323172834,0.0700801523421487
0.012602889607355,0.0194893599201652,0.173172133430301,0.0846363252570001,0.124484601756239,0.263703643420915,0.113284016271013,0.0708799840250639
0.0127849445477576,0.019722277815687,0.171651459558454,0.0846336226085074,0.131093808668304,0.252958694531437,0.109351074208499,0.0715534415777046
0.0129627085294399,0.0201480660693695,0.169870384886735,0.0846344070954927,0.137787203081745,0.242163360290025,0.105190997379576,0.0721058163131748
0.0131344541246699,0.0207628991074707,0.167838098205931,0.0846189031177023,0.144475682796803,0.23143624611597,0.100844538387284,0.072543806694939
0.0132983062446302,0.0215613906935228,0.165567370047485,0.0845669961132591,0.151071106989504,0.220894492458673,0.0963550687792989,0.0728753776422706
0.0134522806203992,0.0225367249214622,0.163074594721016,0.084458765669057,0.157487411692562,0.210652064774545,0.0917679290189626,0.0731096099931468
0.0135943287993517,0.0236807964298082,0.160379724473542,0.0842750034005401,0.163641702623575,0.200818129316395,0.0871297781862966,0.0732565447980935
0.0137223889403979,0.0249843550369314,0.15750609184549,0.0839977003212767,0.169455305249333,0.191495538043298,0.0824879561677774,0.0733270276008096
0.0138344412024025,0.026437150453083,0.154480115763974,0.0836104884811525,0.174854747933544,0.182779440373582,0.0778898682203278,0.0733325563897484
0.0139285659673889,0.0280280734767882,0.151330892996645,0.0830990254174802,0.179772654762224,0.174756037283599,0.0733823988380551,0.0732851342514128
0.0140030028262136,0.0297452908177414,0.148089686520519,0.0824513156936014,0.184148530245498,0.167501492266177,0.0690113584224402,0.073197126032028
0.0140562082676833,0.0315763709583799,0.144789331235938,0.0816579684638238,0.187929426325061,0.161081012266747,0.0648209628790244,0.0730811183899543
0.0140869102597001,0.0335083979837673,0.141463581065763,0.0807123912188515,0.191070489632264,0.155548109312534,0.0608533439250045,0.0729497838241671
0.0140941582332341,0.035528069670339,0.138146419183039,0.0796109184824976,0.19353539021093,0.150944050481205,0.0571480873844046,0.0728157505282493
0.0140773671832487,0.0376217764749283,0.134871350120417,0.0783528741170605,0.195296630023485,0.147297500689484,0.0537417980719421,0.0726914802113912
0.0140363544950865,0.0397756597536663,0.131670693543202,0.076940568530009,0.196335723780993,0.144624359446213,0.0506676920084795,0.072589154612474
0.0139713676954042,0.0419756500423877,0.128574903318254,0.075379235884387,0.196643242659469,0.142927788203516,0.0479552180119772,0.0725205687756104
0.0138831010488465,0.0442074885529224,0.125611938744603,0.0736769196071791,0.196218715591031,0.14219841881548,0.045629710227625,0.0724970273188627
0.0137726992036214,0.0464567360771895,0.122806714849547,0.0718443160972811,0.195070391030969,0.142414728328644,0.0437120725027822,0.0725292402525626
0.0136417469120887,0.0487087730146122,0.120180654811123,0.0698945863231964,0.193214870966735,0.14354356359251,0.0422184968314074,0.0726272169509638
0.0134922449018785,0.0509487938436263,0.117751361422852,0.0678431430776015,0.190676634535043,0.145540800644254,0.0411602209997367,0.0728001594041538
0.0133265728169858,0.0531618004652368,0.115532418305987,0.0657074185218037,0.18748746789382,0.148352126613232,0.0405433333515512,0.0730563574870293
0.0131474404226374,0.0553326009959838,0.113533325771465,0.063506613732994,0.183685811787846,0.15191393432772,0.0403686339278614,0.0734030886166438
0.0129578280765841,0.0574458225075538,0.111759570435778,0.0612614306621243,0.179316035812972,0.15615432099171,0.0406315607380308,0.0738465218781827
0.0127609174728041,0.0594859468082982,0.110212821961943,0.058993787454762,0.174427651972395,0.160994181944973,0.0413221881264779,0.0743916243854197
0.0125600141984862,0.0614373771738149,0.108891245103376,0.0567265199504413,0.169074486531587,0.166348388301653,0.0424253019631078,0.0750420672580527
0.0123584644568818,0.0632845413119915,0.107789911113921,0.0544830744445171,0.163313833552653,0.172127032549521,0.0439205540706774,0.0758001303780072
0.0121595690041421,0.0650120325852806,0.106901289944483,0.0522871983880724,0.157205612400264,0.178236719691535,0.0457826959901522,0.0766666081979125
0.0119664976369565,0.0666047880867037,0.106215803576503,0.0501626357039803,0.1508115461549,0.184581876856792,0.0479818898927243,0.0776407219427368
0.0117822073629459,0.0680482987784701,0.105722420968528,0.0481328318041875,0.144194373783067,0.191066054490348,0.0504840922740534,0.0787200449782912
0.0116093668898157,0.0693288435228626,0.105409275383718,0.0462206517029957,0.137417108445304,0.197593197150409,0.0532515045199793,0.0799004469953067
0.0114502895964762,0.070433735767772,0.10526428376939,0.0444481140654944,0.130542355203076,0.204068869476232,0.0562430838188235,0.0811760602950382
0.0113068767596514,0.0713515700054078,0.105275744796212,0.042836144186668,0.123631700808544,0.21040142974849,0.0594151078126255,0.0825392703690574
0.0111805724008182,0.072072455677251,0.105432889880603,0.0414043487263797,0.116745184708492,0.216503146020088,0.0627217858905892,0.0839807336104547
0.0110723306300967,0.0725882287224858,0.10572636334161,0.0401708138696371,0.109940854596592,0.222291246090535,0.0661159084585703,0.085489426308061
0.0109825958072019,0.0728926343447074,0.106148613813071,0.0391519269433536,0.103274404690179,0.227688886284984,0.0695495237067456,0.0870527300058807
0.0109112952833245,0.0729814770901303,0.106694186873172,0.0383622204123104,0.0967988922049014,0.232626021977237,0.0729746306694035,0.0886565582007211
0.0108578440354784,0.072852734481681,0.107359915545094,0.0378142364166806,0.090564526879116,0.237040166956018,0.0763438773907776,0.0902855278730287
0.0108211602515292,0.0725066290031241,0.108145008157553,0.0375184089039358,0.0846185288161542,0.240877036358656,0.079611252307014,0.0919231763674312
0.0107996908961265,0.071945653454138,0.109051031610236,0.0374829595444731,0.0790050502653522,0.244091074907847,0.0827327550593823,0.093552220055212
0.0107914464025755,0.0711745481024997,0.110081786195223,0.0377138042034432,0.0737651562287478,0.246645874455388,0.0856670319927132,0.0951548474921267
0.0107940437107015,0.0702002332850703,0.111243069687473,0.0382144686354364,0.0689368563202458,0.248514480122859,0.0883759633487739,0.0967130378535361
0.0108047567169758,0.0690317058930088,0.112542333375618,0.0389860141242794,0.0645551767059903,0.249679576709437,0.0908251926517057,0.098208895540353
0.0108205728777852,0.0676799105702553,0.113988239318045,0.040026974788481,0.0606522579729665,0.250133544548187,0.0929845915409653,0.0996249933021236
0.010838254566103,0.0661575957491772,0.115590134644499,0.0413333078176737,0.0572574632265931,0.249878378813063,0.0948286532544462,0.100944717548898
0.0108544039874019,0.0644791622835231,0.11735746342174,0.0428983572444538,0.0543974802827309,0.248925474625587,0.0963368061465921,0.102152608938225
0.010865530844143,0.0626605106347685,0.119299137695073,0.0447128324154689,0.0520964022983032,0.2472952864253,0.0974936389644586,0.103234688583533
0.0108681222335833,0.0607188916023286,0.121422886943641,0.0467648039919255,0.0503757728333323,0.245016869064611,0.0982890336018156,0.104178758295688
0.0108587142546981,0.0586727645739616,0.123734603442462,0.0490397221213566,0.0492545844654247,0.242127301469019,0.0987182069994646,0.104974664597506
0.0108339644881016,0.0565416656469631,0.126237703014364,0.0515204623433817,0.0487492243938221,0.238670990661086,0.098781669118357,0.105614519912483
0.0107907242159612,0.0543460857812068,0.128932524766262,0.0541874041847135,0.048873364741606,0.234698859258979,0.0984851061339313,0.106092877733914
0.0107261092128396,0.0521073568871759,0.131815796189379,0.0570185457851594,0.0496377977590213,0.230267429463627,0.0978391964277843,0.106406859198704
0.0106375680825257,0.0498475420591415,0.134880188919905,0.0599896566698077,0.0510502164213484,0.225437824407168,0.0968593640108654,0.106556226110464
0.0105229472214779,0.0475893254786623,0.138113985720397,0.0630744703805698,0.0531149416686038,0.22027470817101,0.0955654729114116,0.10654339373931
0.0103805513601926,0.0453558978660216,0.141500873441381,0.0662449185300655,0.0558326013139547,0.214845179915146,0.0939814670560693,0.106373378678153
0.0102091983050994,0.0431708342903094,0.145019870794188,0.0694714072438734,0.0591997719050134,0.209217634035549,0.0921349619822021,0.106053681823968
0.0100082663208387,0.0410579618234213,0.148645393414599,0.0727231353715452,0.0632086014875082,0.203460601685827,0.0900567963410376,0.105594111615779
0.00977773275821241,0.0390412141162091,0.152347453522775,0.0759684512100402,0.0678464362436354,0.197641596258724,0.0877805521496444,0.105006555322182
0.00951820290875444,0.0371444687598384,0.156091988429223,0.0791752418580251,0.0730954760391703,0.191825991637301,0.0853420529937919,0.104304705041828
0.00923092837148613,0.0353913629456996,0.159841309513168,0.0823113480460518,0.0789324829306682,0.186075963443733,0.0827788486714727,0.103503742438867
0.00891781421838389,0.0338050843831078,0.16355465881024,0.0853449975747081,0.0853285640780027,0.180449518842808,0.0801296926739321,0.102619986210919
0.00858141406677254,0.032408137162275,0.167188854764987,0.0882452515748062,0.0922490477223121,0.174999632824893,0.0774340155573471,0.101670509611812
0.00822491225934553,0.0312220852833464,0.170699006038344,0.0909824583962588,0.0996534677943792,0.169773503628822,0.0747313945736296,0.100672739962648
0.00785209286482084,0.0302672789862597,0.17403927413114,0.0935287087402365,0.10749566870809,0.164811938414699,0.0720610198673253,0.09964405555367
0.0074672959093557,0.0295625701561285,0.177163670150525,0.0958582827918191,0.115724036981208,0.160148880581739,0.0694611600823066,0.0986013959246559
0.00707536180355886,0.029125022798787,0.18002687520263,0.0979480780416798,0.124281860919177,0.155811090154087,0.0669686340413237,0.0975608988420845
0.00668156511031023,0.0289696236675838,0.182585074556436,0.0997780070712066,0.133107814264265,0.151817987027815,0.0646182985388288,0.096537573109317
0.0062915387022085,0.0291089977705754,0.184796791448024,0.101331357343159,0.14213655538514,0.148181663029648,0.0624425636826501,0.0955450131152357
0.00591118938496179,0.029553133981074,0.186623700215163,0.102595108398992,0.15129943094003,0.144907062929392,0.0604709460717537,0.0945951593957435
0.00554660636623175,0.0303091268571563,0.188031395623443,0.103560203985522,0.160525272052263,0.141992327604764,0.0587296677465279,0.09369810893878
0.00520396434370634,0.0313809414189743,0.188990097251467,0.104221776033645,0.169741271364551,0.139429285431891,0.0572413071603966,0.0928619789513141
0.0048894232483363,0.0327692074880409,0.1894752731212,0.104579314217755,0.178873929876665,0.137204071063595,0.0560245074078354,0.0920928278133548
0.00460902669252849,0.0344710492740073,0.189468173036415,0.104636771838751,0.187850061888512,0.135297843738298,0.0550937457358279,0.0913946363855348
0.00436860099033517,0.0364799549789082,0.188956266533223,0.104402598553977,0.196597843244919,0.133687570930201,0.0544591666683742,0.0907693510292805
0.00417365638918313,0.0387856906218828,0.187933580103406,0.103889693054181,0.205047881683356,0.132346840488127,0.0541264793617244,0.0902169862937757
0.00402929193349553,0.041374261532131,0.186400923379114,0.103115272977973,0.213134280554745,0.131246667411184,0.0540969188580979,0.0897357813914725
0.00394010517827404,0.0442279237465222,0.184365990240023,0.102100663548206,0.220795662706064,0.130356269248559,0.0543672711050615,0.089322402365529
0.00391010783706887,0.0473252466651573,0.181843323834233,0.100871008728148,0.227976121915873,0.129643793659364,0.0549299625095271,0.0889721817568326
0.00394264835624927,0.0506412284252336,0.178854143352239,0.0994549077616296,0.234626074510321,0.129076988602102,0.0557732152451625,0.0886793885521884
0.00404034228928526,0.0541474661903207,0.175426040672612,0.0978839774005834,0.240702991675831,0.128623806890164,0.0568812685777755,0.0884375214798838
0.00420501126227281,0.0578123840503971,0.171592561857575,0.0961923401471004,0.246172000139467,0.128252935313036,0.0582346648396938,0.0882396169740388
0.00443763138243741,0.0616015206499116,0.167392688646521,0.094416042895099,0.25100634107212,0.127934240930248,0.0598105978848137,0.0880785606585144
0.00473829210689203,0.0654778767916945,0.162870230274716,0.0925924165075581,0.255187672463799,0.127639134779946,0.0615833216460511,0.0879473909244304
0.00510616672660072,0.0694023209708057,0.158073132774907,0.0907593921581348,0.258706195316016,0.127340862379214,0.0635246154605118,0.08783958525886
0.00553949561736146,0.0733340489046478,0.153052714736555,0.0889547922105678,0.261560587694749,0.127014737061946,0.065604300641124,0.0877493220313801
0.00603558325734154,0.0772310915470756,0.147862843491522,0.0872156117503378,0.26375774340053,0.126638334322158,0.067790800254747,0.0876717101435617
0.00659080980634049,0.081050864547934,0.142559071023518,0.0855773048364014,0.265312327785036,0.126191663063065,0.0700517315926406,0.0876029772296561
0.00720065783460702,0.0847507507233768,0.13719775225385,0.0840730898533859,0.266246174366612,0.125657324470882,0.0723545181398962,0.0875406077412756
0.00785975453885095,0.0882887061313475,0.131835168158705,0.0827332902917886,0.266587546814859,0.12502066259969,0.0746670060126499,0.0874834262661566
0.00856192946799839,0.0916238799702021,0.126526672071646,0.0815847289164597,0.266370284916511,0.124269903796431,0.0769580699270628,0.0874316264818876
0.00930028744976142,0.0947172384767161,0.121325871901262,0.0806501930920778,0.265632851344751,0.123396276385621,0.0791981953441892,0.0873867492171698
0.0100672961101711,0.0975321824968561,0.116283857510596,0.0799479865596814,0.264417302358932,0.122394099190033,0.0813600250388894,0.0873516126325217
0.0108548870910077,0.100035146405501,0.11144848202833,0.0794915794010573,0.262768215029405,0.121260828157659,0.08341885831939,0.0873301957252305
0.0116545697252702,0.102196162714043,0.106863707109232,0.0792893649812039,0.260731609662942,0.11999705405625,0.0853530892247494,0.0873274768222723
0.0124575554840487,0.103989374515502,0.102569023593841,0.079344530379698,0.25835390424415,0.118606449247377,0.0871445688564045,0.087349231835814
0.0132548910509367,0.105393478968867,0.0985989593788007,0.0796550442410357,0.255680929186292,0.117095665705251,0.0887788790318361,0.0874018010309104
0.0140375975670775,0.106392089094812,0.0949826847373773,0.0802137624803657,0.252757023320317,0.115474187566625,0.0902455093982217,0.0874918359991099
0.0147968134769611,0.106974006598913,0.0917437216237914,0.0810086484653695,0.24962423024638,0.113754138894619,0.0915379360825167,0.0876260390436572
0.0155239384552361,0.10713340289384,0.0888997589269555,0.0820231012645516,0.246321615207172,0.111950043768891,0.0926536043694534,0.087810904967917
0.0162107760017655,0.10686990665397,0.0864625723301981,0.0832363835087533,0.242884721682339,0.110078535272915,0.0935938187811636,0.0880524721751129
0.0168496722818316,0.106188594156282,0.0844380460261969,0.0846241388597495,0.239345180604781,0.108158013244402,0.0943635422540271,0.0883560884634023
0.0174336484759811,0.105099877499917,0.082826293255161,0.0861589872420516,0.235730475744326,0.106208256176535,0.0949711060488802,0.0887261972147356
0.0179565233731803,0.103619288833833,0.0816218722569423,0.0878111831345554,0.232063862645248,0.104249998009095,0.0954278355823672,0.0891661507361606
0.0184130226785515,0.101767164941864,0.0808140925584491,0.0895493189324568,0.22836443650584,0.102304483222789,0.0957476030660179,0.0896780580584231
0.0187988718391839,0.0995682430150291,0.0803874034419956,0.0913410537350857,0.224647342123093,0.100393012440772,0.0959463232810075,0.0902626734956951
0.0191108700121086,0.0970511822823163,0.0803218538147611,0.0931538488024059,0.220924112683791,0.0985364881954295,0.0960414118517698,0.0909193293279134
0.0193469437570302,0.094248025823121,0.0805936119693099,0.0949556934831402,0.217203116425772,0.0967549703840289,0.0960512248260754,0.0916459122775894
0.0195061796767689,0.0911936141391723,0.0811755341602375,0.0967158080417012,0.213490087064763,0.0950672528286318,0.0959944953870201,0.0924388811306315
0.0195888352048961,0.087924960866117,0.0820377708266765,0.0984053108391609,0.209788715143067,0.0934904732573984,0.0958897814056271,0.0932933225517529
0.0195963263385764,0.0844806024544789,0.0831483974571346,0.0999978357145998,0.206101277792228,0.0920397671165486,0.0957549377964362,0.0942030430084415
0.0195311912037324,0.0808999361579515,0.0844740546432737,0.101470082308236,0.202429280020615,0.0907279726200278,0.0956066292393155,0.0951606951928682
0.0193970292709025,0.077222562415581,0.085980581449771,0.102802280799344,0.198774075676664,0.0895653923454507,0.0954599000934636,0.0961579358880235
0.0191984174642045,0.0734876474740876,0.0876336285128477,0.103978554970917,0.195137437931642,0.0885596143482594,0.0953278178040203,0.0971856091915195
0.0189408057260233,0.0697333196208286,0.0893992409178056,0.10498717305058,0.191522057195752,0.0877153930490979,0.0952212031493084,0.0982339471915506
0.018630395244279,0.0659961090412694,0.091244403834721,0.105820682459646,0.187931952970739,0.087034589451969,0.0951484560902705,0.0992927811230119
0.0182740023742086,0.0623104389727203,0.0931375442272184,0.106475929731001,0.184372789159366,0.0865161716296559,0.0951154811638685,0.100351758659282
0.017878910989422,0.0587081748372702,0.0950489798447345,0.106953968071613,0.180852079297909,0.0861562771243882,0.0951257114955655,0.101400565445699
0.0174527162857934,0.0552182376661401,0.0969513053973484,0.107259853412125,0.177379267172407,0.0859483372704734,0.0951802256709578,0.102429149587928
0.0170031638019459,0.0518662875722599,0.0988197076637462,0.107402330468583,0.173965675157795,0.0858832614755354,0.0952779477702808,0.103427945677474
0.016537988123788,0.0486744817120663,0.100632205677228,0.107393415858276,0.170624324669905,0.0859496793284497,0.0954159177622489,0.104388091097062
0.0160647560282747,0.0456613089252873,0.102369817216606,0.107247893422414,0.167369644461519,0.0861342387473235,0.0955896160285186,0.105301624635174
0.0155907185461102,0.042841500609281,0.104016656476156,0.106982743778618,0.164217087910481,0.08642195704764,0.0957933222133587,0.106161657426193
0.0151226757254808,0.0402260153041224,0.10555996820089,0.106616532603845,0.161182678547996,0.0867966186800574,0.0960204873119629,0.106962508634499
0.0146668571167146,0.0378220931947684,0.106990101049324,0.106168780260678,0.158282499389953,0.0872412102512179,0.0962641002736989,0.107699802148257
0.0142288203634641,0.0356333759986517,0.108300421024075,0.105659333166727,0.155532142329091,0.0877383805406048,0.0965170351749285,0.108370524470769
0.0138133697196993,0.0336600871890881,0.109487167046386,0.105107757253043,0.152946138518586,0.0882709099362634,0.0967723695731097,0.108973046295056
0.013424495738162,0.0318992669982178,0.110549254315444,0.10453277440196,0.15053739596949,0.0888221716095988,0.0970236662776305,0.109507109441823
0.0130653367867426,0.0303450560302071,0.111488034920718,0.103951761688571,0.148316673695726,0.0893765674209678,0.0972652092659175,0.109973777656133
0.012738162487128,0.0289890204788144,0.112307027314034,0.103380329691438,0.146292121104684,0.0899199240971355,0.0974921838259843,0.110375347922216
0.0124443786915971,0.0278205107501013,0.113011625356652,0.102831990758208,0.144468906713429,0.0904398373341791,0.0977007942722586,0.110715220782694
0.0121845532479107,0.0268270439652215,0.113608794011752,0.102317922509367,0.14284895333008,0.0909259511358325,0.0978883186576292,0.11099773276065
0.0119584615178662,0.0259947001175796,0.114106755288573,0.101846827529561,0.14143079049571,0.091370157951142,0.0980531060863277,0.111227959308676
0.011765150314197,0.0253085220277802,0.11451466742933,0.101424887618508,0.140209530460787,0.0917667062028335,0.0981945259916293,0.111411500581028
0.0116030184885125,0.0247529104594193,0.11484230243337,0.101055809273363,0.139176970707919,0.0921122074672249,0.0983128786331193,0.11155426301551
0.0114699118647682,0.0243120072549049,0.115099730133906,0.100740954565416,0.138321823192906,0.0924055440969631,0.0984092733638519,0.11166224689803
0.0113632297843529,0.0239700604407631,0.115297018955403,0.10047954787115,0.137630067364281,0.0926476860812751,0.0984854796802709,0.111741346272583
0.0112800403129819,0.0237117654201176,0.115443962321695,0.100268946295595,0.137085420082386,0.0928414300620774,0.0985437574502916,0.111797165855852
0.0112172010465196,0.0235225758054467,0.11554983611658,0.100104961541545,0.136669910362024,0.092991073203683,0.0985866758128255,0.111834860290009
0.0111714822780379,0.023388977138103,0.115623190261306,0.0999822221506013,0.136364540234862,0.093102034499978,0.0986169329749725,0.111859002695326
0.0111396889355625,0.0232987172147767,0.115671678133874,0.099894565332683,0.136150005655055,0.0931804396536869,0.0986371895916489,0.111873490469195
0.0111187771692445,0.0232409876648842,0.115701929647337,0.0998354455258184,0.136007444616241,0.093232691524181,0.0986499259160003,0.111881495332478
0.0111059608886298,0.0232065522530346,0.115719474868066,0.0997983426744002,0.135919173966997,0.0932650532226745,0.0986573293440679,0.111885461143308
0.0110988030270764,0.0231878176670421,0.115728723268391,0.0997771489473617,0.135869371233048,0.0932832727883268,0.0986612167590033,0.111887147926131
0.0110952858225598,0.0231788420910491,0.115732999429912,0.0997665093020968,0.135844652249074,0.093292276517832,0.0986629950301815,0.111887716009748
0.0110938539033785,0.0231752759596548,0.115734632030541,0.0997620884210172,0.135834488931675,0.093295954798838,0.0986636615736273,0.111887840883437
0.011093423421352,0.0231742285315478,0.115735090711903,0.0997607333973471,0.135831404056326,0.0932970620899097,0.0986638438235929,0.111887846599372
