APL,FCR,FDS,FDP,ED,EI,ECU,ECR
0.0149029779067279,0.0165899953943623,-0.00206766457848762,0.0759470419609231,0.0266257577983382,0.538152029364623,0.190324806429215,0.0837562528801037
0.015544086520913,0.0190748777704425,0.0201498074893713,0.076268710482434,0.0268447127899934,0.532553136365604,0.184388592247856,0.0830101481805274
0.0161683300751362,0.0217315583220181,0.0416910573014628,0.0764638626203249,0.0270111210693577,0.525887361561511,0.178329335411112,0.0821286851638313
0.0167726108538832,0.024550657907854,0.0624022077958646,0.0765255655354973,0.0271217676683426,0.518130585100588,0.17219264195563,0.0811106640917325
0.017354198109044,0.027520625749865,0.0821413114926677,0.0764484723132869,0.0271741448237689,0.509271381118867,0.166027345208807,0.0799566213060445
0.0179107428753447,0.0306277663302075,0.100780580721425,0.0762289317464095,0.0271665081916204,0.499312174082778,0.159885086950071,0.0786689360884442
0.0184402725531555,0.0338562971538082,0.11820822310076,0.0758650494052893,0.0270979135387913,0.48827017989436,0.153819828423831,0.0772519105885158
0.0189411660414782,0.0371884404065825,0.134329850430161,0.0753566952479562,0.0269682328349883,0.47617806695073,0.147887279429213,0.0757118154398942
0.0194121124851313,0.04060455191108,0.149069455843469,0.0747054580876899,0.0267781508151807,0.463084294300416,0.142144239456952,0.0740568917096168
0.0198520583069425,0.0440832901890246,0.162369969843736,0.0739145520623175,0.0265291447671333,0.449053111188356,0.136647854635747,0.0722973008033012
0.0202601478005589,0.0476018270181076,0.174193410158001,0.0729886836468299,0.0262234511219008,0.434164223605755,0.131454804274749,0.0704450180656189
0.0206356622292365,0.0511360992747187,0.184520641904289,0.0719338888010545,0.0258640223177683,0.418512139260706,0.126620437080377,0.0685136713728841
0.0209779616621933,0.0546611002837255,0.193350771738245,0.0707573483411305,0.025454476535757,0.402205193347209,0.122197877407595,0.066518330803706
0.0212864332098775,0.0581512069827864,0.200700211759826,0.0694671871648072,0.0249990416118226,0.385364251247057,0.118237118649748,0.0644752576479914
0.0215604488772384,0.0615805369753874,0.206601461359192,0.0680722618701268,0.0245024932121045,0.368121094414067,0.114784119772897,0.0624016201913743
0.0217993357135189,0.0649233277930543,0.211101663493905,0.0665819420069598,0.0239700865864244,0.350616517876801,0.111879923617116,0.0603151821122673
0.0220023601596321,0.0681543299826505,0.214260993233225,0.0650058917625402,0.0234074810382017,0.332998191018709,0.109559819540874,0.0582339694744221
0.0221687274744337,0.0712492057874433,0.216150930841743,0.0633538603067036,0.0228206566778007,0.315418347721114,0.107852575707146,0.056175924177209
0.0222975959674651,0.0741849254755513,0.216852463990272,0.0616354896515244,0.0222158239218982,0.298031372316473,0.106779766298911,0.0541585540653945
0.0223881046573817,0.0769401527651691,0.216454258972982,0.0598601484754248,0.0215993272669644,0.280991337411147,0.10635521593049,0.0521985915541932
0.022439412104416,0.0794956087563148,0.215050839336577,0.0580367989999806,0.0209775457053276,0.264449540017527,0.106584578237212,0.0503116729620721
0.0224507436764676,0.0818344016903244,0.212740809938892,0.0561739018871857,0.0203567923913204,0.248552079864245,0.10746505937898,0.0485120497035137
0.0224214444473268,0.0839423099402202,0.209625162910531,0.0542793614142976,0.01974321569784,0.2334375254187,0.108985291219361,0.046812340434979
0.022351035206897,0.0858080083928095,0.205805697458856,0.0523605100576522,0.0191427031654145,0.219234714701178,0.111125354148013,0.0452233306619446
0.0222392694627593,0.0874232327914809,0.201383577211006,0.0504241285574633,0.0185607896993959,0.206060736795818,0.113856946120797,0.0437538235617861
0.0220861894914308,0.0887828808961956,0.196458039141831,0.0484764951921533,0.0180025716981614,0.194019135499689,0.117143691731556,0.0424105430011102
0.0218921791520523,0.0898850514774137,0.191125261084491,0.0465234567007611,0.0174726291973733,0.183198369648005,0.120941581618814,0.0411980871118847
0.0216580105201847,0.0907310211971989,0.185477391491484,0.044570513128091,0.0169749582577807,0.173670556542127,0.125199528029035,0.0401189287163803
0.0213848812442741,0.0913251575326458,0.179601743927804,0.0426229097283786,0.0165129155985064,0.165490516280071,0.129860019289654,0.039173457641277
0.0210744402677609,0.091674766578467,0.173580157398171,0.0406857305983338,0.0160891769940928,0.158695125563704,0.134859856272704,0.0383600595947927
0.0207288009101484,0.0917898783230035,0.167488519812778,0.03876399028205,0.015705710409529,0.153302979914887,0.140130957116175,0.0376752266521487
0.0203505417317257,0.0916829770775065,0.161396445025319,0.0368627203793635,0.015363764374459,0.149314354810546,0.145601220604178,0.0371136951753653
0.0199426966160015,0.0913686890459723,0.155367087067278,0.0349870476845375,0.0150638716811157,0.146711450450691,0.151195441402979,0.0366686077093623
0.0195087357637898,0.090863440844705,0.149457072439033,0.0331422594195257,0.0148058680003591,0.145458901579924,0.156836269795472,0.0363316955080203
0.0190525388006683,0.0901851013842798,0.143716532885341,0.0313338513376983,0.0145889243517807,0.145504532291307,0.162445204229398,0.0360934775146408
0.018578360441359,0.0893526162499357,0.138189224699747,0.0295675561778545,0.014411591701059,0.146780335386351,0.167943599960945,0.035943470399379
0.0180907886966044,0.0883856413954971,0.132912723227246,0.0278493522898504,0.0142718555791607,0.149203656125181,0.17325367523553,0.0358704038513049
0.0175946955559233,0.0873041827365306,0.127918680249811,0.026185454150197,0.0141671986028113,0.152678560651581,0.17829949855468,0.0358624361342496
0.0170951803135694,0.0861282493554863,0.123233127904834,0.0245822871288313,0.014094669041886,0.157097369501556,0.183007945184497,0.0359073664118259
0.0165975061180415,0.0848775293273608,0.118876810578544,0.0230464483875881,0.0140509539890314,0.162342335534874,0.187309615760178,0.0359928416251589
0.0161070308217426,0.0835710974660824,0.114865528822306,0.0215846554162243,0.0140324560598367,0.168287442182895,0.191139711706507,0.0361065559133056
0.0156291336698226,0.0822271626981196,0.111210485088783,0.0202036841072852,0.0140353726771146,0.1748002920214,0.194438859103918,0.036236439793384
0.0151691396499057,0.0808628594668498,0.107918626566309,0.01891029893835,0.0140557767319841,0.181744050624297,0.197153866862134,0.0363708359559996
0.0147322432746522,0.0794940843805016,0.104992982452397,0.0177111781057773,0.0140896969926039,0.188979410165966,0.199238402840641,0.0364986593402351
0.0143234331268194,0.0781353776796991,0.102432991139189,0.0166128360557809,0.0141331965394955,0.196366541816156,0.20065357527904,0.0366095404341004
0.013947417921562,0.0767998486725337,0.10023481103767,0.0156215450843888,0.0141824478867326,0.203767013701233,0.201368413932162,0.03669395136359
0.0136085545756976,0.0754991439727704,0.0983916105920661,0.0147432570913211,0.014233804065721,0.211045658934737,0.201360251134498,0.0367433137942861
0.0133107789408107,0.0742434560787999,0.096893837013195,0.0139835263442276,0.014283865446847,0.218072382373768,0.200615003438573,0.0367500870537588
0.0130575402922866,0.0730415671417191,0.0957294659354149,0.0133474341093675,0.014329542142775,0.224723892690039,0.199127349387627,0.0367078354361235
0.0128517411377764,0.0719009200911338,0.0948842334827699,0.0128395160790527,0.0143681114961504,0.230885339709798,0.196900794996354,0.0366112750728009
0.0126956842151515,0.0708277085339689,0.0943418503513848,0.0124636935246329,0.0143972699059914,0.23645183239548,0.193947620734986,0.0364563019095868
0.0125910285761602,0.0698269781368644,0.0940841981445763,0.0122232088839026,0.0144151784256964,0.241329814174582,0.190288710522631,0.0362400022987765
0.0125387563788963,0.0689027342541289,0.0940915106621395,0.0121205660119134,0.0144205019951404,0.245438278251878,0.185953269980207,0.0359606468603446
0.0125391514902712,0.0680580515931934,0.0943425438695002,0.0121574747857048,0.0144124424943164,0.248709812795104,0.180978443688681,0.0356176680415481
0.0125917903390648,0.0672951806959365,0.0948147367380739,0.012334799422029,0.0143907657361949,0.251091470544394,0.175408837643878,0.0352116226387275
0.0126955448350687,0.066615644652607,0.0954843643163338,0.0126525098114024,0.0143558220950026,0.252545455858282,0.169295947711477,0.0347441416563168
0.0128485967263489,0.0660203204673354,0.0963266864504814,0.0131096353826157,0.0143085601591594,0.253049615014876,0.16269749424787,0.0342178703160611
0.0130484625719039,0.0655095029030421,0.0973160982701088,0.0137042214883999,0.0142505328968062,0.252597710558882,0.155676668040627,0.0336364003606144
0.013292028569017,0.0650829525407667,0.0984262887484522,0.0144332889868101,0.0141838961712052,0.251199463808382,0.148301299883659,0.0330041957502862
0.0135755947247724,0.0647399320741324,0.0996304114375194,0.0152927984013572,0.0141113997145036,0.248880359424055,0.140642971213619,0.0323265125156414
0.0138949281453297,0.0644792344642823,0.100901270259101,0.0162776204949901,0.0140363705725482,0.24568121599484,0.132776083211432,0.0316093138674583
0.0142453253322107,0.064299205005843,0.102211523911936,0.0173815150501819,0.0139626886550374,0.241657530173689,0.124776897646976,0.0308591818994023
0.01462168315544,0.0641977591219382,0.103533912642645,0.0185971192039479,0.0138947538766864,0.236878597610504,0.116722560055116,0.0300832266990032
0.0150185776606547,0.0641723990087899,0.10484150890838,0.0199159463140728,0.0138374446661579,0.23142641081456,0.108690117375099,0.0292889927525683
0.0154303493859914,0.0642202337051734,0.106107990242117,0.0213283962970043,0.0137960680501292,0.225394340172268,0.100755545869865,0.0284843622497625
0.0158511936409982,0.0643380074227419,0.107307931122631,0.0228237786003544,0.0137763016658545,0.21888561705269,0.0929928078650927,0.0276774554090395
0.0162752541954977,0.0645221394285883,0.108417110600567,0.0243903493198823,0.0137841277978688,0.212011649797592,0.0854729555075654,0.0268765284518346
0.0166967189373319,0.064768776336182,0.109412831618432,0.0260153643315301,0.0138257593397499,0.204890207707476,0.0782632963882913,0.0260898696177371
0.0171099161997144,0.0650738560538278,0.110274244988693,0.0276851505565426,0.0139075578386377,0.197643504403915,0.0714266321023886,0.0253256930243876
0.0175094105524058,0.0654331822695682,0.110982667675402,0.0293851974445319,0.0140359442811627,0.19039620874043,0.0650205785481707,0.0245920303510476
0.0178900967886363,0.0658425085040315,0.11152188437402,0.0311002702720611,0.014217303578217,0.18327341477659,0.0590969753268755,0.0238966213448771
0.0182472904860052,0.0662976305154836,0.111878423511709,0.0328145458318578,0.0144578835478125,0.176398609147845,0.0537013897425212,0.0232468051500252
0.0185768128757829,0.0667944844231346,0.112041801571319,0.0345117697455198,0.0147636889054246,0.169891678940812,0.048872718105195,0.0226494146431449
0.0188750672057868,0.0673292454151361,0.112004730485327,0.0361754334332723,0.0151403708799427,0.16386700236105,0.0446428838848562,0.0221106755007784
0.0191391037539333,0.0678984198769074,0.111763280550832,0.0377889679489114,0.0155931135936402,0.158431658426372,0.0410366297814565,0.0216361116520052
0.0193666711974917,0.0684989235731466,0.111316988535014,0.0393359513881648,0.0161265189334286,0.153683785078784,0.0380713992413517,0.021230459320302
0.0195562529501369,0.06912814008298,0.110668901146383,0.0408003263030267,0.0167444919192005,0.149711110385941,0.0357573019697921,0.0208975923471037
0.0197070879712852,0.0697839561647119,0.109825548004004,0.0421666234372613,0.0174501283469841,0.146589677573754,0.0340971569747753,0.0206404613151542
0.0198191759900813,0.0704647728953609,0.108796843389287,0.0434201880616985,0.0182456060632524,0.144382779341776,0.0330866053077254,0.0204610483329679
0.0198932668522527,0.071169491998146,0.107595919745649,0.0445474049944239,0.0191320811824234,0.143140110038498,0.0327142837389946,0.0203603388350769
0.0199308333052782,0.0718974753202584,0.106238896051332,0.0455359175974422,0.0201095910062156,0.14289713821888,0.032962051273239,0.0203383113901698
0.0199340267777469,0.0726484739191509,0.104744581440002,0.0463748346291076,0.0211769660658553,0.143674698360266,0.0338052626640728,0.0203939458964602
0.0199056166621171,0.0734225241589404,0.103134112949621,0.0470549179719139,0.0223317542085322,0.145478797744706,0.0352130859564213,0.0205252497500166
0.0198489148247349,0.0742198117445077,0.101430528813408,0.047568744994069,0.02357015964244,0.148300630486053,0.037148863265541,0.020729300973652
0.0197676879891253,0.0750405092121214,0.0996582842198005,0.0479108413605097,0.0248869992750612,0.15211678542003,0.0395705145690533,0.0210023067927187
0.0196660608381484,0.0758845960668965,0.0978427222611709,0.0480777823894677,0.0262756780367564,0.156889631782467,0.0424309838658603,0.02133967545189
0.0195484122334924,0.0767516718227521,0.0960095160070278,0.0480682622705736,0.027728184720613,0.162567868587728,0.0456787273321032,0.0217360984620107
0.0194192666041469,0.077640770629148,0.0941840968811732,0.047883129955939,0.0292351101747214,0.169087228643867,0.0492582443576322,0.0221856404336059
0.0192831827906614,0.0785501845090572,0.0923910822348555,0.0475253894396584,0.0307856901319339,0.17637133230917,0.0531106534922743,0.022681834089061
0.0191446432101887,0.0794773025157735,0.0906537149935298,0.0470001623492397,0.0323678751781184,0.184332685710643,0.0571743152658497,0.0232177784096832
0.0190079466604378,0.0804184747631626,0.0889933306022136,0.0463146125708467,0.0339684300147865,0.192873814010592,0.0613855022985208,0.0237862376779098
0.0188771080319948,0.0813689117822073,0.0874288690070295,0.0454778351203211,0.0355730631318088,0.201888518349482,0.0656791148672812,0.0243797386799061
0.0187557676095767,0.0823226297318477,0.0859764502438372,0.0445007135757068,0.0371665866004656,0.211263247714726,0.0699894376237327,0.0249906634535269
0.0186471119763414,0.0832724500212923,0.0846490306523004,0.0433957511951374,0.0387331044929996,0.22087858073695,0.0742509305059397,0.0256113359805832
0.0185538081973983,0.084210058270095,0.0834561531311056,0.0421768800537386,0.040256227583508,0.230610812458877,0.078399044876378,0.0262341026069907
0.018477952866309,0.0851261235649841,0.0824038000576939,0.0408592512151536,0.0417193113316176,0.240333635602643,0.082371055114002,0.026851406953634
0.0184210374920099,0.0860104755564285,0.0814943523028024,0.0394590086935866,0.043105713556668,0.249919899328203,0.0861068956813678,0.0274558601013576
0.0183839313767098,0.0868523340867137,0.0807266526076804,0.0379930509918063,0.0443990676439136,0.259243425750076,0.0895499927909402,0.028040306272975
0.0183668824872169,0.0876405837142885,0.0800961667922562,0.0364787855476191,0.0455835666184712,0.26818086416941,0.0926480773876024,0.0285978841603145
0.0183695359207601,0.0883640838242662,0.0795952323522715,0.0349338825593034,0.0466442529450334,0.2766135607087,0.095353963658467,0.0291220846965393
0.0183909686656477,0.0890120040432871,0.0792133815053658,0.0333760346842151,0.0475673082322829,0.284429413701859,0.0976262770329598,0.0296068068250422
0.0184297386643342,0.0895741740312452,0.078937724883344,0.0318227280087151,0.0483403357516542,0.291524675597124,0.0994301179429331,0.0300464129420016
0.018483945760398,0.0900414354216637,0.0787533826014994,0.030291028430193,0.0489526269203669,0.297805657395169,0.100737651001994,0.030435784953033
0.018551301968568,0.0904059810023502,0.0786439506706128,0.028797386852086,0.0493954018283863,0.303190294321436,0.10152861159589,0.0307703809432134
0.0186292086150812,0.0906616638523864,0.0785919916878737,0.0273574659925575,0.0496620145206846,0.307609538614438,0.101790721334333,0.0310462919744965
0.0187148380999491,0.0908042599564501,0.0785795384729917,0.025985990608083,0.0497481159846819,0.311008551388989,0.101520001235337,0.0312602982567912
0.0188052180446974,0.0908316722089302,0.0785885972491067,0.0246966216458011,0.0496517707781858,0.313347664520762,0.100720970786756,0.0314099232994286
0.0188973151923505,0.0907440697457217,0.0786016341159811,0.0235018538003658,0.0493735256924161,0.31460307644678,0.0994067241360665,0.0314934836328786
0.0189881159834824,0.0905439612459499,0.0786020273932482,0.0224129351548317,0.0489164295813361,0.314767244848908,0.0975988801508279,0.0315101311805449
0.0190747009258054,0.0902362018892275,0.07857447023869,0.0214398066673457,0.0482860026468992,0.313848952042189,0.0953274081657837,0.0314598858311692
0.019154310793145,0.0898279324692648,0.0785053123339199,0.0205910584182389,0.0474901532216373,0.311873040674618,0.092630333160332,0.0313436566582084
0.0192244038588819,0.0893284504252251,0.0783828349076996,0.0198738993967268,0.0465390419022333,0.308879837401327,0.0895533226372403,0.0311632505942277
0.0192827041535872,0.0887490176965262,0.0781974578333733,0.0192941383025979,0.045444896134659,0.304924290443323,0.0861491565766011,0.0309213668467442
0.0193272407420753,0.0881026169227967,0.0779418790380891,0.0188561739184613,0.0442217816718115,0.300074843279409,0.0824770845870486,0.030621575003366
0.0193563776518686,0.0874036724846415,0.0776111452465672,0.0185629944462391,0.0428853394936702,0.294412065385711,0.0786020794586545,0.0302682756131429
0.0193688341894918,0.0866677541082663,0.0772026526354006,0.0184161853222879,0.0414524970931341,0.288027071203946,0.0745940008559031,0.0298666436974191
0.0193636960569497,0.0859112785650492,0.0767160785900022,0.0184159446466393,0.039941161779495,0.281019775030549,0.0705266845798188,0.0294225572413833
0.0193404184367548,0.0851512222839734,0.0761532503935444,0.0185611053356606,0.0383699022852452,0.273497042695712,0.0664769713534681,0.0289425134791705
0.0192988225242132,0.0844048561321401,0.0755179612394218,0.0188491637443146,0.0367576245136292,0.265570803892591,0.0625236869787397,0.0284335354067626
0.0192390866380511,0.0836895122239651,0.0748157466797335,0.0192763154057083,0.0351232475629801,0.257356181577002,0.0587465854174965,0.0279030700567084
0.0191617324734562,0.0830223900800558,0.0740536345509505,0.0198374991778274,0.0334853867123393,0.248969684595933,0.0552252676453699,0.0273588797242916
0.0190676068885739,0.0824204055431293,0.0732398789512684,0.0205264511094865,0.0318620504595155,0.240527502421959,0.0520380907550539,0.0268089278130277
0.0189578598472624,0.0819000815030416,0.0723836859556566,0.021335768770132,0.0302703586954802,0.232143934659058,0.0492610826661656,0.0262612618288831
0.0188339194195774,0.0814774752277786,0.071494937014407,0.0222569861558926,0.0287262884994755,0.223929979451088,0.0469668772327029,0.0257238966892509
0.0186974647061527,0.0811681328897289,0.0705839153859201,0.0232806589765188,0.0272444528171808,0.215992093163374,0.0452236827283932,0.0252047014117486
0.0185503970410333,0.0809870586616794,0.0696610410681782,0.0243964600009016,0.0258379157756862,0.208431120517476,0.0440942950573304,0.0247112914655491
0.0183948091549288,0.0809486847298435,0.0687366201467578,0.025593283828014,0.0245180471115217,0.201341382994458,0.0436351664151996,0.0242509283890161
0.0182329516941781,0.081066829921982,0.0678206148301718,0.0268593597330972,0.0232944172017759,0.194809906651379,0.0438955397505961,0.0238304280653197
0.0180671967255026,0.0813546376071555,0.0669224401022738,0.0281823704917655,0.0221747331964417,0.188915769301255,0.0449166583052997,0.0234560788165173
0.0178999983948533,0.0818244865184467,0.0660507913078505,0.0295495749369843,0.0211648155629694,0.183729549161369,0.0467310582120079,0.0231335698131553
0.0177338514164372,0.0824878692317698,0.0652135042289523,0.0309479325002107,0.0202686131519929,0.179312858099116,0.0493619515939163,0.0228679296272972
0.017571248200402,0.0833552317895283,0.0644174467240395,0.0323642286304778,0.0194882539069366,0.175717939428617,0.0528227072767347,0.022663474625742
0.0174146350375054,0.0844357675847238,0.0636684400214886,0.0337852000872852,0.0188241274445682,0.172987307626335,0.057116435218682,0.0225237669861418
0.0172663672469235,0.0857371621296221,0.0629712081927786,0.0351976584222415,0.018274994787186,0.171153412733729,0.0622356800922986,0.0224515818121057
0.0171286631400546,0.0872652920116217,0.0623293553916283,0.0365886093708102,0.0178381198126727,0.170238324659877,0.0681622303893757,0.0224488823062963
0.0170035571169698,0.0890238885756121,0.0617453710923141,0.0379453662789468,0.0175094168754858,0.170253445045436,0.074867051323589,0.0225168020539605
0.0168928529079697,0.0910141820036181,0.0612206628222238,0.0392556569176263,0.0172836095366979,0.171199259852735,0.0823103510739679,0.0226556342420057
0.0167980785787384,0.0932345427744406,0.0607556138697859,0.040507724368725,0.0171543961519309,0.173065144608223,0.0904417892616462,0.0228648284055527
0.016720445178203,0.0956801353866572,0.0603496619649725,0.041690423378777,0.0171146188205674,0.175829234845495,0.0992008338963153,0.0231429953877177
0.0166608106796132,0.0983425966932946,0.0600013951706681,0.0427933131967167,0.0171564325212494,0.179458380551803,0.108517269630681,0.0234879206333322
0.016619650241074,0.101209750451901,0.0597086624892812,0.0438067465128167,0.0172714709933836,0.183908210486769,0.118311856904237,0.0238965854916415
0.0165970332068563,0.10426537041865,0.059468697522064,0.0447219526134072,0.0174510055039894,0.18912333432709,0.128497138334959,0.024365196278182
0.016592607013631,0.107489005459952,0.0592782527770313,0.0455311121862877,0.0176860927339479,0.195037706323274,0.138978385543821,0.0248892211578991
0.0166055882443626,0.110855880901089,0.0591337404602862,0.046227421515829,0.0179677087803909,0.20157516798165,0.149654676930163,0.0254634351029605
0.0166347613383756,0.114336890149284,0.0590313748720748,0.0468051448134634,0.0182868674720426,0.208650182172908,0.160420095233194,0.0260819730571992
0.0166784857470589,0.117898689217098,0.0589673125616591,0.0472596546231216,0.0186347225028336,0.216168764813131,0.171165032996314,0.0267383909251536
0.0167347124567404,0.121503903957805,0.0589377880918925,0.0475874609274217,0.0190026539503216,0.224029611793125,0.181777593525273,0.0274257330761334
0.0168010106531188,0.12511145549673,0.0589392440906458,0.0477862291076981,0.019382340220008,0.232125411019368,0.192145073173187,0.0281366040149972
0.0168746048074574,0.128677003628517,0.0589684533461858,0.0478547854239971,0.019765816230162,0.240344323560667,0.202155506237146,0.0288632413915315
0.0169524217075905,0.132153501823527,0.059022629257592,0.047793107608211,0.0201455182534878,0.248571611519142,0.211699246548865,0.0295975879637878
0.0170311462302829,0.135491852370296,0.0590995211222227,0.0476022985707651,0.020514316007896,0.256691381251467,0.220670553531791,0.0303313613062951
0.0171072841878131,0.138641646790383,0.0591974927091997,0.0472845428491777,0.020865533418792,0.264588401735725,0.228969148495454,0.0310561213638117
0.0171772304106958,0.14155197511586,0.0593155849967238,0.0468430473941471,0.0211929605615162,0.272149954300594,0.236501709668319,0.0317633366046457
0.017237340311491,0.144172287692356,0.059453565353316,0.0462819695821777,0.0214908601549395,0.279267672594505,0.243183280441289,0.0324444491581577
0.017284003440771,0.146453294192051,0.0596119649006244,0.0456063351795649,0.0217539722364683,0.285839337701581,0.248938571785584,0.0330909388189464
0.0173137178603961,0.148347885280473,0.0597921037196413,0.0448219476409628,0.0219775201801788,0.291770597913734,0.253703143237424,0.0336943862674781
0.0173231643105999,0.149812061245837,0.0599961016347742,0.0439352892386493,0.0221572203378263,0.296976580945114,0.25742444399619,0.0342465371299396
0.0173092789169857,0.150805847744669,0.0602268715065668,0.0429534150750267,0.0222892967733081,0.301383358304713,0.260062687957593,0.0347393697477691
0.0172693226094637,0.151294173555108,0.0604880921012637,0.0418838425601115,0.0223705018980017,0.304929216001123,0.261591531896319,0.0351651700492444
0.0172009450001849,0.15124768317642,0.0607841583522595,0.0407344404714269,0.0223981431120927,0.307565690385432,0.261998529943907,0.0355166164453741
0.0171022405850774,0.150643459997297,0.0611201079776759,0.0395133223764508,0.0223701147263552,0.309258341786977,0.261285348662515,0.0357868763777268
0.0169717957334254,0.149465642265716,0.0615015247162369,0.0382287485282505,0.0222849335741306,0.309987256177951,0.259467741111399,0.0359697143894637
0.016808725744507,0.14770592153126,0.061934419384005,0.0368890387670124,0.0221417760495971,0.309747279365856,0.256575290131721,0.0360596096435439
0.0166127019677989,0.145363918349723,0.0624250897610607,0.0355024976154006,0.0219405140361343,0.308547992577446,0.252650935656863,0.0360518788639713
0.0163839693137974,0.142447430197781,0.0629799587211412,0.0340773521922398,0.0216817473471958,0.306413432500786,0.247750296534854,0.0359427991415912
0.0161233542636454,0.138972542894906,0.0636053886373677,0.0326217035848407,0.0213668306514686,0.303381554396358,0.241940791219558,0.0357297244134719
0.0158322629632287,0.134963595290385,0.0643074709797402,0.0311434925593053,0.0209978929512729,0.299503443779016,0.235300563429849,0.0354111898723473
0.0155126687648015,0.130452990969764,0.0650917932500668,0.0296504805429262,0.0205778472596272,0.294842298189049,0.227917229294577,0.0349869998655743
0.0151670889254145,0.125480858632687,0.0659631896538617,0.0281502462641973,0.0201103877128477,0.289472217982981,0.21988647625386,0.0344582964272234
0.0147985509217158,0.120094571325005,0.0669254854567398,0.026650197319977,0.019599971783536,0.283476856344698,0.211310554815007,0.0338276066775815
0.0144105496836844,0.114348140719803,0.0679812463145462,0.0251575950546836,0.0190517865414391,0.276947979180892,0.202296707495851,0.0330988672852557
0.0140069976543026,0.108301503932548,0.0691315426852323,0.0236795909175332,0.0184716994507908,0.269983976553421,0.19295557428229,0.0322774233782112
0.0135921696920566,0.102019717448908,0.0703757375828249,0.022223272406419,0.0178661952719831,0.262688356992253,0.183399606170042,0.0313699991824574
0.0131706444612339,0.0955720699868432,0.0717113053695498,0.0207957162092443,0.017242300812646,0.255168250033109,0.173741513750559,0.030384638969725
0.0127472435360344,0.0890311267634713,0.0731336897343921,0.019404045463252,0.0166074989363186,0.247532939142951,0.164092776060073,0.0293306190676971
0.0123269693456682,0.0824717208720302,0.0746362092437118,0.0180554879548416,0.0159696332718848,0.239892443942053,0.154562233158747,0.0282183338061061
0.0119149432248046,0.0759699111378775,0.0762100179726983,0.0167574325595671,0.015336805636969,0.232356166058096,0.145254782341242,0.0270591595196745
0.0115163449514,0.0696019281234531,0.0778441265553098,0.0155174815822571,0.0147172688328607,0.225031607581333,0.136270192469071,0.0258653006981418
0.0111363550402523,0.0634431298932137,0.079525486029591,0.0143434964632028,0.0141193177312786,0.218023166420748,0.127702044973252,0.0246496215120849
0.0107801006471309,0.0575669867572948,0.081239133921166,0.01324363404918,0.0135511812795911,0.211431010121385,0.119636805208229,0.023425465319446
0.0104526053658283,0.0520441107967775,0.0829683997061428,0.0122263709419306,0.0130209174662623,0.205350028759454,0.112153024883867,0.0222064647737219
0.0101587426312784,0.0469413430921289,0.0846951651177632,0.0113005141717484,0.0125363127868363,0.199868866469614,0.105320674797315,0.0210063455028187
0.00990319192057824,0.0423209094012423,0.086400172984498,0.0104751971065747,0.0121047873030587,0.195069027129175,0.0992006055072393,0.0198387266717649
0.00969039663315628,0.0382396530244459,0.0880633755506741,0.00975985981940861,0.0117333058464556,0.191024042652774,0.0938441303973379,0.0187169219118478
0.00952452257588924,0.0347483514798466,0.0896643103081415,0.00916421313096076,0.0114282954452834,0.187798688024659,0.0892927213381968,0.0176537440613459
0.00940941626736231,0.0318911215026507,0.0911824905530853,0.00869818542499701,0.0111955688689914,0.185448230367954,0.0855778047390374,0.01666131694678
0.00934856251225488,0.0297049150587029,0.0925977998514388,0.00837185125689915,0.011040254189929,0.184017708907172,0.0827206465288746,0.0157508970452653
0.00934504065922689,0.0282191077190159,0.0938908827903808,0.00819534070592554,0.0109667301795727,0.183541254717812,0.0807323176642134,0.0149327072653712
0.00940147889604648,0.0274551798295149,0.0950435262681798,0.00817872825793876,0.0109785670821612,0.1840414694091,0.0796137358170877,0.0142157843445161
0.0095200063181211,0.0274264901805091,0.0960390245204412,0.00833190000372382,0.0110784721946118,0.185528886819865,0.0793557827632455,0.0136078408659907
0.00970220332586098,0.0281381410799288,0.0968625191372811,0.00866439856978595,0.0112682400553694,0.188001539830608,0.0799394995418686,0.0131151429325067
0.00994905180112654,0.0295869328003887,0.0975013058694354,0.00918524653827092,0.0115487077588968,0.191444648446727,0.0813363616611853,0.012742404993349
0.0102608871054532,0.0317614044931928,0.0979451027693261,0.00990275080503389,0.0119197165661444,0.195830441610831,0.08350863461463,0.0124927038947617
0.0106373540337032,0.0346419581523062,0.0981862763173684,0.0108242918045526,0.0123800812105898,0.201118125934661,0.0864098082908962,0.0123674145730509
0.0110773685766586,0.0382010622350888,0.0982200214047992,0.0119561023096115,0.0129275681116318,0.207254017579531,0.0899851096636304,0.0123661697321015
0.0115790870427992,0.0424035318947114,0.0980444889658846,0.0133030407066466,0.0135588835729581,0.21417185600309,0.0941720958950946,0.0124868453772312
0.0121398839025931,0.0472068828342969,0.0976608554783254,0.0148683639988576,0.0142696732337834,0.221793318125549,0.0989013329882914,0.0127255734586195
0.0127563395879168,0.0525617550156772,0.0970733317330326,0.0166535065881689,0.015054534375971,0.230028747853508,0.104097166812169,0.0130767822472425
0.0134242393724793,0.0584124014463872,0.0962891113494005,0.0186578717540364,0.0159070428933695,0.238778109480698,0.10967859278939,0.013533264384024
0.0141385843930531,0.0646972373048253,0.0953182597294784,0.020878643223199,0.0168197966172472,0.247932165806681,0.115560227668402,0.0140862718136659
0.0148936158498579,0.0713494459964865,0.094173542156441,0.0233106240667172,0.0177844762131777,0.257373874328202,0.121653382160545,0.0147256361166246
0.0156828533914875,0.0782976406705465,0.0928701897190687,0.0259461094732651,0.0187919241059148,0.266979987916832,0.127867227606775,0.0154399122240025
0.0164991485270652,0.0854665812878458,0.0914256053892901,0.0287747990698076,0.01983224104227,0.27662283880786,0.134110043741036,0.0162165432488551
0.0173347534880979,0.0927779475827199,0.0898590178277511,0.0317837535102824,0.0208948991326936,0.286172274633843,0.140290528136037,0.017042044166144
0.0181814053038491,0.100151166566641,0.088191094346892,0.0349573989166739,0.0219688696053985,0.295497703542414,0.146319141738545,0.0179022021828202
0.0190304242151886,0.107504289880389,0.0864435248332067,0.0382775814019118,0.0230427631274332,0.304470197054851,0.152109460636741,0.0187822916919305
0.0198728251221126,0.114754912923704,0.0846385861768112,0.0417236724653696,0.0241049804174743,0.312964597583602,0.15757950303505,0.0196673015876582
0.0206994405037948,0.121821125580539,0.0827986954284515,0.0452727247374642,0.0251438709106654,0.320861582093443,0.162653002394806,0.0205421723916896
0.0215010530735782,0.128622483631469,0.0809459610071968,0.0488996764541225,0.0261478972142399,0.328049641911776,0.167260601646466,0.0213920400889961
0.0222685362709041,0.135080990236568,0.079101743526583,0.052577601979071,0.0271058027075966,0.334426947401402,0.171340946872204,0.0222024827677909
0.0229930005005486,0.141122077601435,0.0772862395438568,0.0562780042311134,0.0280067788063173,0.339903070305367,0.174841658889483,0.0229597652284646
0.0236659427225387,0.146675579231639,0.0755181017068719,0.059971142977597,0.0288406276824511,0.344400532033827,0.177720157327489,0.023651076049352
0.0242793964209895,0.15167668183486,0.0738141070242014,0.0636263915811475,0.0295979162626926,0.347856136176719,0.179944309771558,0.0242647514848095
0.0248260780955615,0.15606684190265,0.072188881624576,0.0672126147094572,0.0302701181535071,0.350222039814859,0.18149288370177,0.0247904810892502
0.0252995256574792,0.159794646455958,0.0706546864193836,0.0706985603818351,0.0308497413740006,0.351466527128582,0.182355790162365,0.0252194909626243
0.0256942240256199,0.162816594182411,0.06922126474864,0.0740532603654327,0.0313304408122975,0.351574467022788,0.182534120367612,0.0255447016338952
0.0260057138974171,0.165097774506233,0.0678957509442877,0.0772464321006784,0.0317071145432498,0.350547456272812,0.18203998394031,0.0257608583171611
0.0262306808121041,0.166612427373251,0.0666826378489525,0.080248873435111,0.0319759824788285,0.34840366207153,0.180896157181243,0.0258646311680639
0.0263670226959807,0.167344373354149,0.0655838013975773,0.0830328408596493,0.0321346452954489,0.345177376994427,0.179135546676698,0.0258546825652391
0.026413894477358,0.167287308690086,0.0645985806805692,0.0855724037700791,0.0321821221571009,0.34091829199034,0.176800475784811,0.0257316984212771
0.0263717279424087,0.166444959973573,0.0637239114425793,0.0878437704006671,0.0321188672614553,0.335690494272644,0.173941809762172,0.0254983815907548
0.0262422247246113,0.164831089275147,0.0629545090889306,0.0898255835232587,0.0319467669263078,0.329571210258702,0.170617944922267,0.0251594072483682
0.0260283211597156,0.162469339396214,0.0622830949197917,0.0914991840027701,0.0316691199977193,0.322649330366523,0.166893693351014,0.0247213419958784
0.0257341255353624,0.159392914420721,0.0617006581646239,0.0928488380657045,0.0312906042692569,0.31502376195843,0.162839094340554,0.0241925297135532
0.0253648302017804,0.155644100458382,0.0611967466270422,0.0938619227197983,0.0308172306204487,0.306801653611603,0.158528178623657,0.0235829473410024
0.0249266022041351,0.151273640795849,0.0607597795376319,0.094529065224049,0.0302562857711974,0.298096525362274,0.154037707715639,0.0229040332518004
0.024426456103,0.146339984405851,0.0603773767225411,0.0948442360373081,0.0296162644591595,0.289026337382211,0.149445910731569,0.0221684908156364
0.023872112078725,0.14090842520902,0.0600366978195493,0.0948047983093241,0.0289067922166404,0.279711533910596,0.144831242763735,0.0213900705528868
0.0232718423447558,0.135050145274047,0.0597247836488711,0.0944115187075561,0.0281385403491416,0.270273103010731,0.140271189507929,0.0205833355204027
0.0226343094660964,0.12884117415629,0.0594288894452035,0.0936685430441744,0.027323134902843,0.260830689817209,0.135841140619632,0.0197634155728468
0.0219684008908416,0.122361279759311,0.0591367981197314,0.0925833372424869,0.0264730611566986,0.251500791409554,0.131613348950894,0.0189457564249724
0.0212830643956511,0.11569281082892,0.058837102240556,0.091166592945525,0.0256015643741151,0.242395052853663,0.127655985869221,0.0181458689454993
0.0205871489743166,0.108919514620127,0.0585194459131706,0.0894320985497672,0.0247225463809847,0.233618681643036,0.124032296934522,0.0173790834050926
0.0198892549558055,0.102125353463066,0.0581747212743813,0.087396579374345,0.0238504566441436,0.225268999820493,0.12079985864083,0.0166603129603892
0.0191975961423434,0.0953933406235822,0.0577952173515111,0.0850795133034374,0.023000176362183,0.21743415518886,0.118009935576362,0.0160038303479613
0.0185198759662724,0.0888044114294341,0.0573747200385233,0.0825029290984311,0.0221868945309396,0.210192011523471,0.115706937499072,0.0154230612886434
0.0178631792151166,0.082436343057282,0.0569085612114281,0.0796911929108816,0.0214259755675841,0.203609230928776,0.113927976240838,0.0149303973504485
0.0172338806294933,0.076362735876361,0.0563936154353958,0.0766707851487214,0.0207328183228274,0.197740552281944,0.112702521441188,0.0145370300995158
0.0166375714232196,0.0706520695143992,0.0558282458547529,0.0734700670558095,0.0201227059142034,0.192628263474824,0.112052150825051,0.0142528074776882
0.0160790042983804,0.0653668465442212,0.0552122053897329,0.0701190354305235,0.0196106453511169,0.188301863481052,0.111990386719996,0.0140861126731668
0.0155620568188386,0.0605628349984723,0.0545465030930895,0.0666490645126937,0.0192111961885801,0.184777911526687,0.112522609157616,0.014043765407947
0.0150897124163179,0.0562884179657738,0.053833246786777,0.063092635500442,0.0189382883931145,0.18206006293636,0.113646038240328,0.0141309454176837
0.0146640581043449,0.0525840558776382,0.0530754720659732,0.0594830556773929,0.0188050306294576,0.18013929302028,0.115349783100549,0.0143511376442413
0.0142862980256424,0.0494818658350715,0.0522769665846053,0.0558541699528039,0.0188235106483754,0.17899431042274,0.117614959545519,0.0147060982454031
0.0139567819278181,0.0470053219289501,0.0514420983775828,0.0522400670210954,0.0190045892549269,0.17859215870212,0.120414881137253,0.0151958403458852
0.0136750473203119,0.0451690799921539,0.0505756569513604,0.0486747804141329,0.0193576892752118,0.178888999020369,0.123715327476761,0.0158186386577536
0.0134398736344011,0.043978928902862,0.0496827148992333,0.0451919831602545,0.019890581712937,0.179831058561293,0.127474889623558,0.0165710523023699
0.0132493466463867,0.0434318683973867,0.0487685157053674,0.0418246751128722,0.0206091726313991,0.181355721843577,0.131645389349832,0.0174479649929436
0.0131009317599749,0.0435163109759112,0.0478383910303741,0.0386048639891617,0.0215172955085999,0.183392738169657,0.136172368395579,0.018442641447876
0.0129915551316439,0.0442124033613472,0.0468977085930569,0.0355632435697825,0.022616514266087,0.185865518432087,0.140995645406384,0.0195467989942544
0.012917691685174,0.0454924609601558,0.045951849468241,0.0327288741007521,0.0239059418848849,0.188692497538923,0.146049940492292,0.0207506936085866
0.0128754587572638,0.0473215066866503,0.0450062114093776,0.0301288699646592,0.025382079376144,0.191788543399813,0.151265569318362,0.0220432195862901
0.0128607138817586,0.0496579034367092,0.0440662334390862,0.027788098678398,0.0270386804099517,0.195066397997237,0.156569209611473,0.0234120216247093
0.0128691552845541,0.0524540677714626,0.0431374366290002,0.0257288946915662,0.0288666477792872,0.198438138794474,0.161884742299194,0.0248436180429246
0.0128964237459979,0.0556572514098994,0.0422254762762767,0.0239707917429074,0.0308539684862518,0.201816648008538,0.167134166394924,0.0263235344201366
0.0129382042826201,0.0592103771336892,0.0413362008710897,0.022530278052969,0.032985694124031,0.205117072103651,0.172238580855619,0.0278364476642217
0.0129903257401564,0.0630529163692333,0.0404757126360104,0.0214205787663978,0.0352439722917569,0.208258246015312,0.177119219878631,0.0293663407919295
0.013048856271693,0.0671217961110095,0.0396504231184078,0.0206514695475036,0.0376081334353853,0.211164051153671,0.181698523713895,0.0308966681917853
0.013110192788501,0.0713523219782635,0.0388670967476408,0.0202291242524745,0.0400548362069836,0.213764676170154,0.185901226143742,0.0324105303840142
0.0131711424773631,0.0756791026090161,0.0381328763955147,0.0201559986949274,0.0425582731618729,0.215997754183385,0.189655441505857,0.0338908571233217
0.0132289941985738,0.08003696047614,0.0374552873097141,0.0204307520618077,0.0450904371983268,0.217809357674036,0.19289373705919,0.0353205981904118
0.013281577376065,0.0843618163725889,0.0368422180809698,0.0210482074659645,0.0476214475381381,0.219154840229758,0.195554179000714,0.0366829219501888
0.0133273063100012,0.08859153807854,0.036301878287485,0.021999353144052,0.0501199323288444,0.219999520225016,0.19758134083742,0.0379614222234641
0.0133652086107716,0.092666746111894,0.03584273208681,0.0232713855425216,0.0525534632770172,0.220319202662584,0.19892725946453,0.0391403338550192
0.0133949372521547,0.0965315692707041,0.0354734070725503,0.0248477949092219,0.0548890362628199,0.220100530508089,0.19955231737742,0.0402047563946205
0.0134167661088477,0.100134340517418,0.035202579222932,0.0267084935945958,0.0570935907271377,0.219341150374863,0.199426023603255,0.0411408836387859
0.0134315687559934,0.103428222892651,0.0350388367992334,0.02882998749661,0.0591345596833096,0.218049676925344,0.198527666070614,0.04193623490439
0.0134407804408293,0.106371757171394,0.0349905271429997,0.0311855917079133,0.0609804411550272,0.21624544774868,0.196846814477145,0.0425798823956129
0.013446343906161,0.108929326510296,0.0350655900268733,0.0337456918989913,0.0626013801673412,0.213958072619954,0.194383662286201,0.0430626681486005
0.0134506408066563,0.111071535949134,0.035271380889785,0.0364780528055259,0.0639697480731696,0.211226793249921,0.191149204888417,0.0433774038934926
0.0134564112150369,0.112775504242324,0.0356144879682446,0.0393481742010382,0.0650607041897707,0.208099677276036,0.187165253840147,0.0435190477683917
0.0134666638202997,0.114025062612587,0.0361005482077653,0.0423196932944406,0.0658527246981476,0.204632670244692,0.18246428350637,0.0434848529602119
0.0134845792164411,0.114810853538552,0.0367340667736921,0.0453548310989793,0.0663280855796424,0.200888523298148,0.177089102775546,0.0432744845469914
0.0135134087595741,0.115130324998104,0.0375182444387321,0.0484148789936064,0.0664732892018806,0.196935609677483,0.171092347595382,0.0428901013431567
0.0135563717845736,0.114987620402391,0.0384548174930537,0.051460720263873,0.0662794266581338,0.192846644923953,0.164535799386571,0.0423363988779372
0.0136165540871855,0.114393368826407,0.0395439159116089,0.0544533798746627,0.0657424686518884,0.188697332475058,0.1574895454058,0.0416206085723987
0.0136968102881578,0.113364381161492,0.0407839459867781,0.05735459433288,0.0648634764727321,0.184564964656505,0.150031004925459,0.0407524484788482
0.013799672308506,0.111923255586147,0.0421715029382771,0.0601273925543915,0.0636487239830089,0.180527015316418,0.142243846342018,0.0397440231353075
0.0139272659954677,0.110097894907581,0.0437013182532986,0.0627366782134596,0.0621097237920664,0.176659761837152,0.134216816465174,0.0386096733601561
0.0140812377706793,0.107920941782719,0.0453662465295096,0.065149803663124,0.0602631554347196,0.173036970010771,0.126042500715121,0.0373657798785242
0.0142626927788886,0.105429143652503,0.0471572967749895,0.067337124324192,0.0581306984613396,0.169728667376036,0.11781603494454,0.0360305262965442
0.0144721455439562,0.102662663833865,0.0490637125833856,0.0692725204801855,0.0557387767812264,0.166800023149605,0.109633793771896,0.0346236267492884
0.0147094839222284,0.0996643558980431,0.0510731039968103,0.0709338725097291,0.0531182211458815,0.164310347279774,0.101592083291403,0.0331660229146864
0.0149739471635329,0.0964790158717833,0.0531716314334045,0.0723034770216734,0.0503038555736729,0.162312216632593,0.0937858656635675,0.0316795555788452
0.0152641188749913,0.0931526250080145,0.0553442393543683,0.0733683943965971,0.0473340136738336,0.160850732617459,0.086307539312655,0.0301866174247357
0.01557793538606,0.0897315968058853,0.0575749348689003,0.0741207209810291,0.0442499929447151,0.159962912277932,0.0792457933878134,0.0287097952561771
0.0159127094349896,0.0862620439792028,0.0598471043365879,0.0745577797288694,0.0410954579040033,0.159677214676041,0.0726845505810479,0.0272715106855509
0.0162651685535569,0.0827890819252939,0.0621438588803426,0.0746822218435492,0.0379158048948243,0.160013206025347,0.0667020080437029,0.0258936680585496
0.0166315072426111,0.0793561836154926,0.0644483972157234,0.0745020322558682,0.0347575017033062,0.160981368910205,0.0613697819115866,0.0245973172588418
0.0170074519562548,0.0760045974442597,0.0667443719627275,0.074030435207546,0.0316674139351223,0.162583060733487,0.0567521577510108,0.0234023376624479
0.0173883379212724,0.0727728367276819,0.0690162448621257,0.073285701223619,0.0286921287953208,0.164810622539508,0.0529054471165319,0.0223271482653876
0.0177691967911817,0.0696962479995092,0.0712496174677847,0.0722908607138063,0.0258772862788156,0.167647632425591,0.0498774484045954,0.021388447797836
0.0181448539539809,0.0668066640224049,0.0734315263487022,0.0710733303593643,0.0232669273477098,0.171069290994303,0.0477070078322249,0.0206009874167564
0.0185100338647791,0.0641321454629936,0.0755506943452741,0.0696644571251966,0.0209028678587647,0.175042921151133,0.0464236748226932,0.0199773774908968
0.0188594710519292,0.0616968121151106,0.0775977303775527,0.0680989846357447,0.0188241058069954,0.17952856086171,0.0460474466160055,0.0195279292509475
0.0191880237426354,0.0595207610560015,0.0795652691342685,0.0664144492041463,0.0170662683717911,0.184479625792989,0.0465885993342307,0.0192605317124719
0.0194907867438786,0.0576200661412572,0.0814480411297297,0.0646505166367254,0.0156611044342361,0.189843620223795,0.0480476058893812,0.0191805640887856
0.0197632003952454,0.0560068510434432,0.0832428660276795,0.0628482741112263,0.0146360274174028,0.195562879549902,0.0504151436998311,0.0192908435482429
0.0200011529679541,0.0546894265816995,0.0849485677011224,0.061049492460045,0.0140137125576999,0.201575334400606,0.0536721961791717,0.0195916075157647
0.0202010745771187,0.0536724824071029,0.0865658160657392,0.0592958728561826,0.0138117523675473,0.20781529110896,0.0577902510845814,0.020080529200483
0.0203600211639744,0.0529573230735486,0.0880969055764992,0.0576282900859208,0.0140423740192804,0.214214222347289,0.0627315966525981,0.0207527649736768
0.020475747059219,0.0525421385673655,0.0895454814105984,0.0560860442837556,0.0147122222927119,0.220701556554242,0.0684497140181642,0.0216010323211234
0.0205467641161564,0.0524222986154705,0.0909162226228328,0.0547061340671948,0.0158222113260715,0.227205452665605,0.0748897621829281,0.0226157168544646
0.0205723851205653,0.0525906586599049,0.0922144905871356,0.0535225652985971,0.0173674477675229,0.233653551164181,0.0819891499066201,0.0237850063132861
0.0205527496785094,0.0530378652220108,0.0934459524192173,0.0525657101567708,0.019337227220085,0.239973701006068,0.0896781876232159,0.0250950492877295
0.0204888318949229,0.0537526507230676,0.0946161915794111,0.0518617302089853,0.0217151051293302,0.246094670392539,0.0978808121455343,0.0265301367826109
0.0203824304067369,0.0547221118355255,0.0957303200379411,0.0514320749993235,0.0244790425747326,0.251946854042941,0.106515377593567,0.0280729052714423
0.0202361422050905,0.0559319692699138,0.0967926075332848,0.0512930654708181,0.027601626808779,0.257462988284341,0.115495507297971,0.0297045599376723
0.020053321797686,0.0573668087762693,0.0978061434106185,0.0514555699508175,0.0310503656240812,0.262578877540311,0.124731002479384,0.0314051161331446
0.0198380267417761,0.0590103026163404,0.0987725452254129,0.0519247791095979,0.0347880536394563,0.267234125155386,0.134128802891944,0.0331536562860689
0.019594950164698,0.0608454097850955,0.0996917254795462,0.0527000848127295,0.0387732077127876,0.271372853737446,0.143593991471575,0.0349285992753129
0.0193293410818086,0.0628545538064686,0.100561723662909,0.0537750659767315,0.0429605681498397,0.274944397903089,0.153030831249477,0.0367079796684332
0.0190469139698307,0.0650197788036112,0.101378606786609,0.0551375824658229,0.0473016620180799,0.277903954831927,0.162343821639823,0.0384697348175078
0.0187537497830022,0.0673228866698347,0.102136439452735,0.0567699757694627,0.0517454243184415,0.28021318337586,0.17143876324272,0.0401919981426273
0.0184561910478747,0.0697455595951398,0.102827324279843,0.0586493725915682,0.0562388716136032,0.281840747576579,0.180223823624406,0.0418533965353594
0.0181607335816592,0.0722694722491519,0.103441514361176,0.0607480848069039,0.0607278207951237,0.282762801518428,0.18861059831053,0.0434333485722223
0.0178739167788666,0.0748763962478533,0.10396760031965,0.0630340972496522,0.0651576434812271,0.282963406636836,0.1965151589005,0.04491235892013
0.0176022137878246,0.0775482968257779,0.104392774489373,0.0654716338677253,0.0694740448484005,0.282434863078294,0.203859074251252,0.0462723038457322
0.0173519226884018,0.0802674196712724,0.10470317318152,0.0680217925303062,0.073623854814064,0.281177932333398,0.21057038587944,0.0474967031608505
0.0171290599516191,0.0830163656633272,0.104884294684522,0.0706432383859322,0.0775558193074011,0.279201932947726,0.216584518445428,0.0485709748026345
0.0169392577624452,0.08577815246146,0.10492148580204,0.0732929442422609,0.0812213795297963,0.276524701623949,0.221845109548909,0.04948266900485
0.0167876669389561,0.0885362635220055,0.104800484190071,0.0759269639097618,0.0845754269282946,0.273172423018812,0.226304747452545,0.0502216791006269
0.0166788669491178,0.0912746857048125,0.104507998874904,0.0785012222897871,0.0875770201873213,0.26917933734094,0.229925607622611,0.0507804249751872
0.0166167839484333,0.0939779350775835,0.104032308041095,0.0809723055563311,0.0901900478508643,0.264587331860025,0.232679976253909,0.0511540034575542
0.0166046173032366,0.0966310679967919,0.103363851877111,0.0832982360651744,0.0923838183366802,0.259445414278601,0.234550641820796,0.0513402990025612
0.0166447750697384,0.0992196740463158,0.102495799038217,0.0854392188168301,0.0941335602209863,0.253809062771231,0.235531130987901,0.0513400488366024
0.016738819253203,0.10172984987913,0.101424567739895,0.0873583481909135,0.0954208197001911,0.247739453785087,0.235625768545512,0.0511568590356126
0.0168874220488209,0.104148156897126,0.100150285658051,0.0890222638777683,0.096233747391704,0.241302580906164,0.234849551377433,0.0507971707598128
0.0170903343189718,0.106461568529428,0.0986771752028884,0.09040174294111,0.096567270553768,0.234568289971169,0.233227838884178,0.0502701777322375
0.0173463671579505,0.108657412551264,0.0970138507249216,0.0914722129433151,0.0964231472716604,0.227609261080979,0.230795870508628,0.049587696033366
0.0176533869255386,0.110723311436138,0.0951735118057726,0.0922141720489729,0.0958098976629697,0.220499964614356,0.227598120634579,0.0487639863086297
0.0180083240703095,0.1126471231457,0.0931740156123554,0.0926135063209919,0.0947426083730303,0.213315610782845,0.223687495845041,0.0478155288539313
0.0184071963543869,0.114416887357222,0.0910378147712784,0.0926617002395079,0.0932426120604144,0.206131108482582,0.219124379325353,0.0467607543213106
0.0188451473593846,0.116020785643095,0.0887917549292072,0.0923559411885089,0.0913370508603155,0.19902005002071,0.213975535195389,0.0456197357759901
0.0193165010347768,0.117447125551147,0.0864667353039484,0.0916991199686435,0.0890583387463051,0.192053740469548,0.208312897384417,0.0444138500717236
0.0198148324689457,0.118684356367247,0.0840972425592014,0.0906997277527163,0.0864435398694111,0.185300291373686,0.202212277663298,0.0431654169843139
0.0203330544191419,0.119721120622223,0.0817207707015312,0.089371649367788,0.0835336782980469,0.178823797294068,0.195752031327573,0.0418973234139336
0.0208635187866464,0.120546343431923,0.0793771389781121,0.0877338557708466,0.0803729923797449,0.17268361036005,0.189011715354325,0.0406326388353722
0.0213981320679655,0.121149361554837,0.0771077209295513,0.0858100037190153,0.0770081469479337,0.166933723167774,0.182070766277733,0.0393942281686051
0.0219284835682725,0.121520093495263,0.0749546022982637,0.0836279553803825,0.0734874183634386,0.161622264219595,0.175007219773331,0.0382043690026419
0.0224459845896049,0.121649249201086,0.0729596909800702,0.0812192327875529,0.0698598694336849,0.156791102462571,0.167896492745224,0.0370843808088106
0.0229420159444297,0.121528573272251,0.0711638059237796,0.0786184208534265,0.0661745324367365,0.152475549729866,0.160810249656695,0.0360542737168413
0.0234080804515842,0.121151112059416,0.0696057723813046,0.0758625303351906,0.0624796181327089,0.148704145648442,0.153815375839864,0.035132423351154
0.0238359568877445,0.120511494207378,0.0683215487014743,0.0729903316798193,0.0588217666088981,0.145498511010302,0.146973080173048,0.0343352768502282
0.0242178520901376,0.119606214976145,0.0673434071860004,0.0700416722872615,0.0552453526726649,0.142873261841507,0.140338147140744,0.0336770944650868
0.0245465481638439,0.118433914894354,0.0666991896900443,0.0670567917631349,0.0517918555985665,0.140835984350522,0.133958353742263,0.0331697309898439
0.024815541586632,0.116995641083668,0.0664116571228006,0.0640756506154897,0.0484993010745239,0.139387276333091,0.12787406021291,0.0328224610354105
0.025019170350197,0.115295075743911,0.0664979499960723,0.0611372867172193,0.0454017819288798,0.138520860500189,0.122117975881271,0.0326418512691946
0.0251527248725873,0.113338714789936,0.0669691743051608,0.0582792111071917,0.042529063194469,0.138223772182872,0.11671509441966,0.0326316814077124
0.0252125389462305,0.111135982611604,0.0678301234366534,0.0555368518837266,0.0399062759155725,0.138476623722293,0.111682787626161,0.0327929147260927
0.025196058303867,0.108699274981259,0.0690791429386364,0.052943052937098,0.0375537026109232,0.139253950986886,0.107031043953581,0.0331237183366528
0.0251018858648177,0.106043928260045,0.0707081410851783,0.0505276328217475,0.035486655392034,0.140524650112328,0.102762836942064,0.0336195331377419
0.024929803622919,0.10318811605506,0.0727027442983236,0.0483170078761499,0.0337154455414031,0.142252511554044,0.0988746088688483,0.0342731928303582
0.0246807710446081,0.100152673366846,0.0750425927149965,0.0463338827092346,0.0322454413168811,0.144396853413935,0.0953568553861806,0.0350750906299505
0.0243568994091297,0.0969608470096189,0.0777017673910039,0.0445970103910672,0.031077209216896,0.146913248887313,0.0921947965802805,0.0360133912811511
0.0239614018571213,0.0936379739059969,0.0806493371946038,0.0431210239344119,0.0302067328837324,0.149754335294267,0.0893691177429249,0.0370742847267555
0.0234985201376232,0.0902110949658845,0.0838500109597066,0.0419163395176765,0.0296257029903385,0.152870685801118,0.0868567595601527,0.0382422762300734
0.0229734305490565,0.0867085184964263,0.0872648787044459,0.0409891301523666,0.0293218705109873,0.156211721381515,0.0846317350033034,0.0395005060427916
0.0223921327170094,0.0831593507953565,0.0908522236092377,0.0403413668370533,0.0292794545212823,0.159726639649708,0.0826659508623838,0.0408310904398767
0.0217613252242835,0.0795930116205705,0.0945683834849418,0.0399709235647502,0.0294795945060893,0.163365336461997,0.0809300150158755,0.0422154756017544
0.0210882716376308,0.0760387492266786,0.0983686383899266,0.0398717427876534,0.0299008367155499,0.167079292940604,0.0793940143841152,0.0436347964291022
0.0203806596350949,0.0725251657061552,0.102208101742845,0.0400340584483104,0.0305196444788905,0.170822396553237,0.0780282509488211,0.0450702335741647
0.0196464554408853,0.0690797603577568,0.106042595219807,0.0404446738436833,0.0313109231694342,0.174551665896375,0.0768039228477015,0.0465033631754389
0.0188937558390255,0.0657284972496997,0.109829490784308,0.0410872910606372,0.0322485511420503,0.17822785667914,0.0756937359183072,0.0479164943269133
0.0181306404712687,0.0624954029926608,0.11352850390583,0.0419428874810854,0.0333059078958595,0.181815937573517,0.074672431792927,0.0492929886876244
0.0173650276404441,0.0594022016683812,0.11710241982665,0.0429901330472826,0.0344563898406134,0.185285433425115,0.0737172226874611,0.050617555069118
0.0166045371504424,0.0564679951716212,0.12051773312325,0.0442058398501416,0.0356739031609794,0.188610635227176,0.0728081285790165,0.0518765106685906
0.0158563635984597,0.0537089979717429,0.123745183227506,0.0455654336873014,0.0369333233087305,0.19177067365234,0.0719282170912862,0.0530580009392778
0.0151271629607563,0.0511383346969009,0.126760174596013,0.0470434361836642,0.0382109117771673,0.19474945468566,0.0710637481614842,0.0541521719334398
0.0144229545886481,0.0487659068549318,0.129543077187025,0.0486139462279036,0.0394846827494273,0.197535465071483,0.0702042244959417,0.0551512917372876
0.0137490402184338,0.0465983322134673,0.132079407528151,0.0502511107621615,0.0407347144894515,0.200121467316935,0.0693423480406099,0.0560498203959522
0.0131099412992456,0.0446389576459288,0.134359890616961,0.0519295767797322,0.0419434022836025,0.202504112686953,0.0684738847806513,0.0568444293397769
0.0125093556817558,0.0428879435509505,0.136380400374052,0.0536249177355983,0.0430956505442441,0.204683501707004,0.067597444625659,0.0575339709952724
0.0119501343535452,0.0413424151406045,0.13814177712885,0.0553140274814422,0.0441790011536012,0.206662716091602,0.066714188033098,0.0581193980820192
0.0114342784007078,0.0399966732930493,0.139649526430316,0.0569754736651661,0.0451836947449622,0.208447340085216,0.0658274743820782,0.0586036324742149
0.0109629557398006,0.0388424558737694,0.140913411417555,0.0585898023600646,0.0461026630878219,0.210044986578757,0.0649424676180653,0.0589913860961418
0.0105365364711239,0.0378692399141624,0.14194695678436,0.0601397876233189,0.04693145400378,0.211464842555364,0.0640657131141934,0.0592889399004916
0.0101546450517443,0.0370645757823752,0.14276688287504,0.0616106229877684,0.0476680941009198,0.2127172474084,0.0632046987576547,0.0595038897748156
0.00981622697185313,0.036414445949725,0.143392485314367,0.0629900551407761,0.0483128976269712,0.213813315755647,0.0623674140527291,0.0596448688134087
0.0095196273064371,0.0359036423435354,0.143844974577382,0.0642684618370918,0.0488682307742646,0.214764613797225,0.0615619223444384,0.0597212541142482
0.00926267840440537,0.0355161568947851,0.144146792928751,0.06543887562831,0.0493382399363124,0.21558289532607,0.0607959615926993,0.059742865459445
0.00904279397760611,0.0352355794402422,0.144320930462709,0.0664969532004933,0.049728551579667,0.216279899629185,0.060076587659542,0.059719664071541
0.00885706679509526,0.0350454957561126,0.144390264156578,0.0674408893454548,0.0500459519427446,0.216867207196376,0.0594098712606955,0.0596614610632642
0.00870236695790702,0.0349298765662594,0.144376941818554,0.068271275889195,0.0502980563151174,0.217356140587739,0.0588006566169015,0.0595776456653113
0.00857543751725051,0.0348734463077717,0.144301827633166,0.0689909086911048,0.0504929791993637,0.217757691864366,0.0582523867188684,0.0594769420354334
0.00847298434783902,0.0348620186739409,0.144184021709197,0.0696045490230134,0.0506390173622431,0.218082458886583,0.0577669973306678,0.0593672014402367
0.00839175776179301,0.0348827850442856,0.144040464553889,0.0701186479854534,0.0507443571497682,0.218340579754323,0.0573448797964514,0.059255235431841
0.00832862416253356,0.0349245425304531,0.143885637435522,0.0705410429591314,0.050816815534519,0.21854166385416,0.0569849108898696,0.0591466951720662
0.00828062681430487,0.0349778509731785,0.143731369073136,0.070880633449727,0.0508636219914579,0.218694724425655,0.0566845456435692,0.0590460011534413
0.00824503526406583,0.0350351126251958,0.143586756274969,0.0711470423910218,0.0508912462799801,0.218808117200191,0.0564399667123052,0.0589563255377403
0.00821938299359873,0.035090573394461,0.143458200548228,0.0713502700387265,0.0509052755894607,0.218889483920341,0.0562462823977653,0.0588796267814217
0.00820149282159931,0.0351402486916334,0.143349556244205,0.0715003504780436,0.0509103430037172,0.218945696441896,0.0560977649851492,0.0588167342168815
0.00818948985376181,0.0351817788036525,0.143262380875044,0.0716070236767855,0.0509101076382023,0.218982800842393,0.0559881206148352,0.0587674787860042
0.0081818024134514,0.0352142196127084,0.143196274860152,0.0716794371594079,0.0509072849709897,0.219005968460464,0.0559107806129806,0.0587308644962897
0.00817715212546987,0.0352377775149955,0.143149294832524,0.0717258900168992,0.0509037237442261,0.219019466921354,0.0558592019269708,0.0587052728589836
0.00817453488618464,0.0352535031344883,0.143118420492531,0.0717536294578913,0.0509005233048441,0.21902666467627,0.0558271620424189,0.0586886896075833
0.00817319463399241,0.0352629649004284,0.143100049070405,0.0717687084336021,0.0508981824273174,0.219030076461701,0.0558090320061423,0.0586789400129407
0.00817259168027531,0.0352679283549928,0.143090484120867,0.071775912128371,0.0508967677810417,0.219031449087861,0.0558000093936636,0.0586739164651895
0.00817236720083058,0.0352700688895346,0.143086378180553,0.0717787603356541,0.0508960875054893,0.219031881938868,0.0557962906623657,0.0586717794657896
0.00817230551269105,0.0352707458144307,0.143085082527749,0.0717795911703759,0.0508958527964283,0.219031973681948,0.0557951593931984,0.0586711104597768
