APL,FCR,FDS,FDP,ED,EI,ECU,ECR
0.0116040898411803,0.0056079574088838,0.0366746814335429,-0.0152002004779972,0.0368271470417261,0.110552281544336,0.0286209926015724,0.0251385458330659
0.0163623070522214,0.00752519931216166,0.0375601685559983,-0.00669010873319185,0.0397546206064723,0.129560642657516,0.0315185125914448,0.0260431065474078
0.0215739871049886,0.00951442598779463,0.0385374989368643,0.00150235367118393,0.0425388002120393,0.147578277295946,0.0347399373730206,0.0268658520160572
0.0272261724108495,0.011565672262076,0.0396128293183203,0.00931723672621575,0.0451603967762344,0.164474674475887,0.0382796743157517,0.0275987160845505
0.0333001032859789,0.0136680677432997,0.0407919693483285,0.0166999695820458,0.0476026672479273,0.180136119140309,0.042127983396331,0.0282348093525942
0.0397711369886518,0.0158099271285753,0.0420801850097202,0.0236022199246524,0.0498516790351166,0.194467468093256,0.0462708591981099,0.0287685379557139
0.046608755425043,0.0179788504811183,0.0434819720576056,0.0299825812052948,0.0518964856777603,0.207393365493365,0.0506899705509775,0.0291956863121091
0.0537766679217278,0.0201618338387709,0.0450008045869744,0.0358070781528692,0.0537292096251538,0.218858880718388,0.0553626600887604,0.0295134620130975
0.0612330142722049,0.0223453908951647,0.0466388684612384,0.0410494921130658,0.0553450353576836,0.228829593550347,0.0602620054520792,0.0297205042894605
0.0689306719315081,0.0245156862181451,0.0483967926850941,0.0456915139528852,0.0567421217439582,0.237291178774311,0.0653569439589975,0.0298168599360796
0.0768176697764608,0.0266586798997543,0.0502733931887185,0.0497227342380613,0.0579214454501553,0.244248550915633,0.0706124629866134,0.0298039317288007
0.0848377092061269,0.0287602831726798,0.0522654428911194,0.0531404818065495,0.0588865872584162,0.249724627885157,0.0759898584574388,0.0296844041557702
0.092930791362473,0.0308065243618082,0.0543674799239552,0.0559495246849317,0.0596434713779031,0.253758773142207,0.0814470629739708,0.0294621502139356
0.10103394664497,0.0327837242296085,0.0565716635193705,0.0581616504766525,0.0602000662569111,0.256404982822934,0.086939042847297,0.0291421220301814
0.109082059164852,0.0346786789935302,0.0588676849397706,0.0597951455574269,0.0605660550392639,0.257729892367637,0.0924182602294081,0.0287302276599145
0.117008774339125,0.0364788480678346,0.0612427390132876,0.0608741931552849,0.0607524844514502,0.25781068173189,0.0978351943274675,0.0282331965303572
0.12474747333478,0.0381725424992265,0.0636815602221971,0.0614282099357958,0.0607714021146541,0.2567329565396,0.103138914899178,0.0276584364347916
0.132232294658469,0.0397491096227232,0.0661665256866126,0.0614911396396315,0.0606354936101469,0.254588674113179,0.108277701583667,0.0270138855336922
0.139399181387469,0.0411991096552326,0.0686778255418885,0.0611007210631234,0.0603577316511952,0.251474170807655,0.11319970339642,0.0263078632619739
0.146186932391452,0.0425144804756175,0.0711936989469152,0.0602977462409146,0.0599510500258314,0.247488334570338,0.117853632971324,0.0255489241933034
0.152538236936888,0.0436886872467901,0.0736907313563216,0.0591253227116087,0.0594280542875945,0.242730955087858,0.122189488839404,0.0247457186461843
0.158400673196362,0.0447168532568689,0.0761442061279852,0.0576281511004703,0.0588007793996549,0.237301271656894,0.126159295501283,0.0239068630722242
0.163727650695713,0.045595867155776,0.0785285015636713,0.0558518268877332,0.058080501814247,0.23129672622246,0.129717846287133,0.0230408221219136
0.168479273109821,0.0463244605637059,0.0808175234754073,0.0538421741754267,0.0572776102118972,0.224811918964303,0.132823430738136,0.0221558031309091
0.172623092706316,0.0469032501941427,0.0829851631830705,0.0516446194090014,0.0564015359175114,0.217937758021698,0.135438528029303,0.0212596630706772
0.176134726189857,0.047334740446949,0.0850057706056395,0.0493036135660852,0.0554607410855428,0.210760791779007,0.137530450464948,0.0203598278832915
0.178998306364831,0.0476232852308325,0.0868546305913008,0.0468621114282972,0.0544627600001682,0.203362708210359,0.139071924998523,0.0194632244401698
0.181206753566492,0.0477750104634271,0.0885084280787243,0.0443611155997966,0.0534142862339981,0.195819978696248,0.140041604020292,0.018576225863877
0.182761861612955,0.0477977000661393,0.0899456866934619,0.0418392908922749,0.0523212961913904,0.188203616714021,0.140424496974962,0.0177046112892151
0.183674200455486,0.0477006478091026,0.0911471675746215,0.0393326522427418,0.0511891982377356,0.18057902110063,0.140212311071764,0.0168535410075975
0.183962838260794,0.0474944764425295,0.0920962196989283,0.0368743270664058,0.0500229966955055,0.173005880144136,0.139403686388613,0.0160275473294395
0.183654882153939,0.0471909261053861,0.0927790776604098,0.0344943907442589,0.0488274615688847,0.165538122748615,0.138004312643591,0.0152305408842797
0.182784837738737,0.0468026161447954,0.0931851055664201,0.0322197716235883,0.047607297357099,0.15822391106282,0.136026921685828,0.0144658318079248
0.181393795942507,0.0463427871639395,0.0933069850829259,0.0300742196315676,0.0463673066015529,0.15110567098778,0.133491158068999,0.0137361651730926
0.17952846819503,0.0458250322152479,0.0931408431176907,0.0280783307143473,0.0451125447147893,0.144220153499663,0.130423335810911,0.01304376979282
0.177240102152845,0.0452630267431171,0.0926863137573009,0.0262496182936332,0.0438484618281808,0.137598517639442,0.126856089802081,0.0123904190180336
0.174583315488765,0.0446702659354466,0.0919465312803374,0.0246026230303609,0.0425810263082478,0.131266429617788,0.122827927457437,0.0117775015546037
0.171614883165728,0.0440598164616888,0.0909280552506069,0.0231490531758348,0.0413168250100204,0.125244179660922,0.118382686043523,0.0112060999217796
0.168392508910169,0.0434440884687795,0.0896407330724986,0.0218979490902813,0.0400631374370057,0.119546825142525,0.113568905318366,0.0106770739227227
0.164973610637498,0.0428346333206809,0.0880975081671615,0.0208558664284808,0.0388279839746961,0.114184372216252,0.108439130766994,0.0101911461804899
0.161414152319368,0.0422419721971194,0.086314181766063,0.0200270725580794,0.0376201512839477,0.109162007242889,0.103049166281882,0.00974898638897888
0.157767557426695,0.0416754596231367,0.0843091337914225,0.0194137501809228,0.0364491999000602,0.104480384769105,0.0974572945451937,0.00935129076312461
0.154083738272629,0.0411431841593719,0.0821030065557461,0.0190162017451979,0.0353254595306004,0.100135973676723,0.091723479893126,0.00899885346186018
0.150408270303274,0.0406519064091102,0.0797183560787024,0.018833048560288,0.0342600165429595,0.0961214592717844,0.085908565884218,0.0086926273643358
0.146781732936019,0.0402070324925557,0.0771792788020698,0.0188614194180646,0.0332646965528931,0.0924261962605711,0.080073479475661,0.00843377218554562
0.143239231474528,0.0398126192251366,0.0745110244379008,0.0190971247495898,0.0323520436454333,0.0890367053305488,0.0742784541965839,0.00822368820088475
0.139810107537104,0.039471406055111,0.0717396067856064,0.0195348137271242,0.0315352964659438,0.0859372044688606,0.0685822843999784,0.00806403383048556
0.136517837902199,0.0391848688264951,0.0688914228553034,0.0201681130744076,0.0308283598872215,0.0831101654181141,0.0630416207022682,0.00795672554021624
0.133380115220604,0.0389532912572524,0.0659928881002173,0.020989747416947,0.0302457691859476,0.0805368857452696,0.0577103135603942,0.00790391927214093
0.130409099406415,0.0387758507856204,0.0630700942550787,0.0219916414696749,0.029802641971312,0.0781980673526406,0.0526388094838305,0.00790797369464739
0.127611824631867,0.0386507152736694,0.0601484962089435,0.0231650041028901,0.0295146119715085,0.0760743919309794,0.0478736036509855,0.00797139651385321
0.124990742195299,0.0385751460386725,0.0572526341319783,0.0245003939392573,0.0293977385980185,0.0741470819615445,0.0434567529537826,0.008096775549534
0.122544373697603,0.0385456022114377,0.0544058956242307,0.0259877664336111,0.0294683871201328,0.0723984329150395,0.0394254533997359,0.00828669633726349
0.120268044077795,0.0385578423916663,0.0516303201667366,0.0276165034811874,0.0297430760912475,0.0708123005579417,0.0358116846036454,0.00854364821766387
0.118154662583102,0.038607021551755,0.0489464459423924,0.029375428103469,0.0302382908251922,0.0693745282425684,0.0326419227037257,0.00886992143847995
0.11619552185191,0.0386877832447444,0.0463731974186819,0.0312528081839605,0.0309702634365563,0.068073302390654,0.0299369227125215,0.00926749846662485
0.114381089367131,0.0387943485960548,0.0439278101896222,0.0332363540964638,0.0319547205147205,0.0668994288307879,0.0277115717044999,0.00973794315521047
0.112701768967757,0.0389206037921364,0.0416257877770087,0.0353132150157224,0.0332065991077908,0.0658465264640784,0.025974814261122,0.0102822914509663
0.111148610313382,0.039060186772545,0.0394808845515296,0.0374699778122668,0.0347397318592742,0.0649111361738061,0.0247296507214627,0.0109009470397262
0.109713941822274,0.0392065723287106,0.0375051095558204,0.0396926715875533,0.0365665038219599,0.0640927420562285,0.0239732074126319,0.0115935849765193
0.108391902644045,0.0393531538962283,0.0357087465627402,0.0419667808230519,0.0386974862524828,0.0633937020750616,0.0236968766611047,0.0123590660373001
0.107178854476307,0.0394933203656601,0.0341003852413238,0.0442772706390023,0.0411410555905453,0.0628190883805297,0.0238865232171022,0.0131953642079846
0.106073662487426,0.0396205270267701,0.0326869576453237,0.0466086281682781,0.0439030078109653,0.0623764427889681,0.0245227529896998,0.0140995093922572
0.105077842290509,0.0397283609215722,0.0314737750205175,0.0489449238383686,0.0469861786814472,0.0620754580498625,0.025581239467335,0.0150675471465208
0.10419557319751,0.0398106019236375,0.0304645622054448,0.0512698950868019,0.0503900795566318,0.0619275985064159,0.0270331024879068,0.0160945171038189
0.10343357736587,0.0398612812431738,0.02966148952346,0.053567053444397,0.0541105577789941,0.0619456737289516,0.0288453334940755,0.0171744517011674
0.102800865792351,0.0398747383826106,0.0290652037843466,0.0558198149955316,0.0581394913292676,0.0621433772286593,0.0309812616517835,0.0183003967358271
0.102308358442857,0.0398456761776419,0.0286748602063464,0.0580116538045344,0.0624645285203976,0.0625348020241314,0.033401055959995,0.0194644549533579
0.101968394275381,0.0397692126530128,0.0284881565060821,0.0601262770787726,0.0670688843380383,0.0631339460079112,0.036062258935479,0.0206578532204582
0.101794153105245,0.0396409286506435,0.0285013704302055,0.0621478190414888,0.0719312047145438,0.0639542215261039,0.0389203470263674,0.0218710330389592
0.101799012475417,0.0394569112146634,0.02870940269504,0.0640610485106985,0.0770255081968016,0.0650079840669945,0.0419293120218726,0.0230937634476262
0.101995860765613,0.0392137937951619,0.0291058279251541,0.0658515842941946,0.0823212115406348,0.0663060937025407,0.0450422573640719,0.0243152747166539
0.1023963874077,0.0389087946306624,0.0296829561855014,0.0675061126465818,0.0877832428541217,0.0678575203365207,0.0482120034522988,0.0255244105556235
0.103010373431556,0.0385397538169602,0.0304319069747035,0.0690126010903148,0.0933722436855506,0.0696690011571499,0.0513916959486564,0.0267097958121927
0.103845008604706,0.0381051684367865,0.0313426963633845,0.0703605017335437,0.0990448599359863,0.0717447562052692,0.0545354100681397,0.0278600159446078
0.10490426309704,0.0376042249063448,0.0324043367710644,0.0715409352230487,0.104754120539299,0.0740862651016348,0.0575987424660257,0.028963804078954
0.106188340798586,0.0370368283674651,0.0336049480485064,0.0725468458965827,0.110449902214697,0.0766921053456086,0.0605393820033907,0.0300102313255206
0.107693238021803,0.0364036297557383,0.034931878176491,0.0733731206354755,0.116079477674277,0.0795578512146362,0.0633176515983248,0.0309888961563519
0.109410426095334,0.0357060513497529,0.036371831800606,0.0740166672820448,0.121588142555233,0.082676031684893,0.0658970145831353,0.0318901087189647
0.111326670595091,0.0349463107659642,0.0379110045497549,0.0744764511735767,0.126919912417439,0.0860361444996107,0.068244539147175,0.0327050655266232
0.113423994399273,0.0341274419632887,0.0395352202070288,0.0747534885743441,0.132018276677914,0.0896247209850468,0.0703313130252377,0.0334260090396558
0.115679786413143,0.0332533108944744,0.0412300666183528,0.0748507945919624,0.136826993871434,0.0934254342956679,0.0721327993007705,0.034046366194763
0.118067052757286,0.0323286233802518,0.0429810258353278,0.0747732840036624,0.141290912966484,0.097419244223663,0.0736291250836006,0.0345608607282462
0.120554802774197,0.0313589233353716,0.0447735949108087,0.0745276272422356,0.145356807698823,0.1015845740093,0.0748052977890665,0.0349655960051396
0.123108558786029,0.0303505802549118,0.0465933955728112,0.0741220685729984,0.148974213328974,0.105897516955599,0.0756513472487602,0.0352581073098037
0.125690976403335,0.0293107654651612,0.0484262728737672,0.0735662166469934,0.152096256017769,0.110332071078823,0.076162393999814,0.0354373843021615
0.128262561292933,0.0282474166425404,0.0502583840428567,0.0728708176148445,0.154680462616988,0.114860397696703,0.0763386435962638,0.0355038648526559
0.130782468207438,0.027169189334351,0.0520762786068474,0.0720475188859585,0.156689533274466,0.119453097144245,0.0761853050639582,0.0354594007670085
0.133209367893525,0.0260853933268872,0.0538669693852838,0.0711086301093399,0.158092054241603,0.124079494813154,0.0757124317885625,0.0353071952972336
0.135502366078679,0.0250059117154334,0.0556179922777413,0.0700668877364475,0.15886312709803,0.128707933432821,0.0749346859608752,0.035051712908364
0.137621955042399,0.0239411016238339,0.0573174522398541,0.0689352296050807,0.158984893786395,0.133306070909908,0.0738710317175856,0.0346985633655412
0.139530972801975,0.0229016771994075,0.0589540538865422,0.0677265856014992,0.158446943079937,0.137841184657694,0.0725443652712987,0.0342543641301988
0.141195540595414,0.0218985770854598,0.0605171173003009,0.0664536895325285,0.157246591039931,0.142280481419681,0.0709810909564317,0.0337265866074404
0.142585948366325,0.0209428194374806,0.0619965818741196,0.0651289161376886,0.155389032552463,0.146591407413563,0.0692106505097736,0.0331233924360558
0.143677460340551,0.0200453474294804,0.0633830021074472,0.063764145856009,0.152887360550217,0.150741951443462,0.0672650119682855,0.0324534655197281
0.144451017513423,0.0192168675663642,0.0646675384293957,0.0623706583006162,0.149762445860103,0.154700935397073,0.0651781260480459,0.0317258441797873
0.144893819539373,0.0184676828738666,0.0658419445717639,0.060959052984537,0.146042670470243,0.158438290789769,0.0629853605662779,0.0309497565264868
0.144999773479466,0.0178075234281576,0.0668985528772518,0.0595391931628696,0.141763513381897,0.161925323962045,0.0607229252582525,0.0301344613903852
0.144769799238122,0.0172453773930458,0.0678302603305128,0.0581201672162887,0.136966998328344,0.165134973268615,0.0584272988584469,0.0292890968352184
0.144211979820757,0.0167893263748758,0.0686305196956433,0.0567102624663798,0.131701021877128,0.168042057907812,0.0561346684690684,0.0284225382296257
0.143341540674161,0.0164463892170562,0.0692933405285411,0.0553169480934845,0.126018584779012,0.170623513366504,0.0538803902629765,0.0275432680035168
0.14218064230728,0.0162223782420844,0.0698133033037588,0.0539468658135941,0.119976947755776,0.172858607718684,0.0516984807759714,0.0266592594637866
0.140757977400626,0.0161217714861966,0.0701855873410976,0.0526058279961912,0.113636729119899,0.174729136684287,0.0496211482142582,0.0257778772131624
0.1391081759045,0.0161476038321451,0.0704060115395784,0.0512988222345618,0.107060960417756,0.176219600749828,0.0476783723423514,0.0249057965449116
0.137271034769733,0.0163013792688512,0.0704710867470179,0.0500300197150983,0.10031411779035,0.177317371437737,0.0458975394489629,0.0240489434662644
0.135290597840653,0.016583005805511,0.0703780791322293,0.0488027840497418,0.0934611489367833,0.178012853221994,0.0443031362838201,0.0232124558828816
0.133214113085072,0.0169907537976016,0.0701250838839701,0.047619678352659,0.0865665169314052,0.178299642226237,0.0429165044781683,0.0224006655131069
0.131090892116995,0.0175212377528411,0.0697111069751818,0.0464824705332298,0.0796932819132573,0.178174676669178,0.0417556549715875,0.021617099581949
0.128971097531512,0.0181694213171002,0.069136150605845,0.0453921388709846,0.0729022395364344,0.177638371488285,0.0408351403797732,0.0208645011141537
0.126904487848148,0.0189286450923271,0.0684012974474645,0.044348880878071,0.0662511313147733,0.176694731084811,0.0401659822110723,0.020144866472313
0.12493915476229,0.0197906770332064,0.067508790126837,0.0433521277573123,0.0597939379670129,0.17535143786468,0.0397556494928714,0.0194594985403157
0.123120290444059,0.0207457852349127,0.0664621038217406,0.0424005652244468,0.0535802639017355,0.173619917839194,0.0396080855298268,0.01880907363697
0.12148902284653,0.0217828328777298,0.0652660096217054,0.0414921606103473,0.0476548189483957,0.171515385522909,0.0397237796338581,0.0181937199441505
0.120081354389707,0.0228893949266281,0.0639266246538421,0.040624196440054,0.0420570015948858,0.169056866957426,0.0400998800649137,0.0176131050203554
0.118927234377461,0.0240518958994488,0.0624514444097272,0.0397933116029511,0.0368205858610435,0.166267193494995,0.0407303431852065,0.0170665298122737
0.118049789228614,0.0252557675841822,0.0608493542654537,0.038995552144432,0.0319735114941894,0.163172955257805,0.0416061132014853,0.0165530263121407
0.117464728640921,0.0264856249096858,0.0591306194241587,0.0382264340740156,0.0275377747045001,0.159804404592462,0.0427153276076281,0.0160714554761915
0.117179940529956,0.0277254572014583,0.0573068535042479,0.0374810200253996,0.0235294145388599,0.156195304730151,0.0440435450702193,0.0156206014493106
0.117195282482314,0.0289588311084837,0.0553909649777957,0.0367540101544188,0.019958588493825,0.152382724083775,0.0455739940164014,0.0151992580987679
0.117502572283798,0.0301691011322022,0.0533970793256881,0.036039846078914,0.0168297301620624,0.148406778949419,0.0472878405733518,0.0148063045516183
0.118085775046154,0.0313396241342918,0.0513404352123249,0.0353328257795038,0.0141417814250736,0.144310324970077,0.049164473565921,0.0144407676098269
0.118921379984536,0.0324539752287917,0.0492372549622479,0.0346272272970383,0.011888491594573,0.140138592912776,0.0511818033215165,0.0141018701343645
0.119978956310954,0.0334961635859969,0.0471045915735353,0.0339174394765255,0.0100587755965803,0.135938762590125,0.0533165711755664,0.013789065269204
0.121221875020427,0.0344508473021584,0.0449601549592819,0.0331980985139205,0.00863712273967286,0.131759472009532,0.0555446672663841,0.0135020564614579
0.122608181171427,0.0353035461734959,0.0428221190952536,0.0324642292412065,0.00760404720231936,0.127650264841522,0.0578414541963924,0.0132408029663714
0.124091598865603,0.0360408500846637,0.0407089112646267,0.0317113895956847,0.00693657131774663,0.123660984577478,0.0601820928452081,0.0130055106001222
0.125622647625477,0.0366506196678058,0.0386389857665559,0.0309358155061814,0.00660873282917269,0.119841125125654,0.0625418652875511,0.012796608108427
0.127149843729965,0.0371221755486179,0.0366305863824351,0.0301345620495726,0.00659210731864545,0.116239144948136,0.0648964897921655,0.012614710401936
0.12862095429275,0.0374464728040838,0.0347015031398921,0.029305635942386,0.00685633693630058,0.112901749958113,0.0672224237867888,0.0124605707535042
0.129984267768526,0.0376162579449221,0.0328688286831755,0.0284481144608864,0.00736965650817168,0.109873152903989,0.0694971509308678,0.0123350245824208
0.131189843609709,0.0376262065503996,0.0311487186093208,0.0275622465851241,0.00809940831978661,0.107194322404474,0.0716994471307805,0.0122389274917373
0.132190706223976,0.0374730403532454,0.0295561599313971,0.0266495332258087,0.00901253757107501,0.104902239772806,0.0738096189505644,0.0121730898885379
0.132943953420624,0.037155622760414,0.0281047525078099,0.0257127843321164,0.0100760616980212,0.103029183336175,0.0758097086000881,0.0121382102586369
0.133411754966151,0.036675031155308,0.0268065090142303,0.0247561509281032,0.0112575081882885,0.101602057790704,0.0776836624129149,0.0121348092502855
0.133562219382636,0.0360346030558649,0.025671679147751,0.0237851296259236,0.0125253166711826,0.100641783896102,0.0794174627066227,0.0121631670016432
0.13337010572375,0.0352399524424924,0.0247086030153331,0.022806536956264,0.0138492015603618,0.10016276433893,0.0809992241291199,0.0122232663452076
0.132817357235451,0.034298953151114,0.023923597350952,0.0218284518151512,0.0152004718133902,0.100172443613564,0.0824192542971957,0.0123147444107814
0.131893440815276,0.0332216879228155,0.0233208768174102,0.0208601260920616,0.0165523052860319,0.100670980732795,0.0836700769949448,0.0124368547189068
0.130595488251579,0.0320203637535745,0.022902511325226,0.0199118651587035,0.0178799767708803,0.101651051835373,0.0847464170635445,0.012588441357111
0.12892824689201,0.0307091957306173,0.0226684189663804,0.0189948805394776,0.0191610406192557,0.103097795692825,0.0856451491200334,0.012767926369537
0.12690385352767,0.0293042619188988,0.0226163928741347,0.0181211169130162,0.0203754703280537,0.104988910723975,0.0863652155224406,0.0129733109619876
0.124541444846844,0.0278233311126591,0.0227421592833767,0.0173030557465709,0.0215057582786041,0.107294908019975,0.0869075206104465,0.0132021906035209
0.12186661640776,0.0262856644877601,0.0230394634875245,0.0165534987416824,0.0225369788079368,0.10997952022427,0.0872748070938253,0.0134517837485204
0.118910744902163,0.0247117923440501,0.023500180351805,0.0158853352412437,0.0234568171610998,0.113000261221399,0.0874715177802128,0.0137189736245193
0.115710194516633,0.0231232681272891,0.024114446446478,0.0153112981341184,0.0242555662009939,0.116309127619207,0.0875036445589045,0.0140003621278142
0.11230543412955,0.0215424032391942,0.0248708114411059,0.0148437125381819,0.0249260924956481,0.119853429609005,0.0873785676163053,0.0142923343067784
0.108740095248073,0.0199919872370865,0.0257564068008776,0.0144942413479989,0.0254637735805191,0.123576734608471,0.0871048899392854,0.014591131434459
0.105059999718152,0.0184949984603985,0.0267571297136854,0.0142736320327258,0.0258664086505603,0.127419902351508,0.0866922733451034,0.0148929304677048
0.101312182179266,0.0170743097538297,0.0278578394495112,0.0141914695797317,0.0261341054848034,0.131322187165797,0.0861512811086358,0.0151939277334456
0.0975439280127538,0.0157523932058462,0.0290425625038711,0.0142559407568365,0.0262691468471568,0.135222383306844,0.0854932294682214,0.015490424863335
0.0938018451306435,0.0145510273390583,0.0302947025956321,0.0144736146674753,0.0262758397351939,0.139059991433942,0.0847300486331114,0.0157789151696847
0.0901309869430201,0.0134910100817627,0.0315972520289727,0.0148492440772056,0.0261603504651128,0.142776386654169,0.0838741543446524,0.0160561686336036
0.0865740432001509,0.0125918808815161,0.0329330018637932,0.0153855916171771,0.0259305276565674,0.146315968818039,0.0829383320971031,0.0163193133160626
0.0831706143325765,0.0118716553260984,0.0342847494478249,0.0160832848235558,0.0255957142004529,0.149627272569171,0.0819356358350996,0.0165659105067353
0.0799565828971302,0.0113465755694894,0.0356355028116564,0.0169407038869915,0.0251665489081007,0.152664010071162,0.0808793006406604,0.0167940208176084
0.0769635925284063,0.0110308797221642,0.0369686818849214,0.0179539057852186,0.0246547588916204,0.155386017917014,0.0797826666532786,0.017002258919641
0.0742186406174818,0.0109365931306941,0.0382683161617778,0.0191165880178318,0.0240729445562155,0.157760083219058,0.0786591112898989,0.0171898354904424
0.0717437868167794,0.0110733440849514,0.039519237281127,0.0204200944248695,0.0234343599792336,0.159760630782356,0.0775219880741915,0.0173565857667095
0.0695559763464896,0.011448206003784,0.0407072636427543,0.0218534647047339,0.0227526919477394,0.161370260692872,0.0763845710955983,0.017502984437958
0.0676669750015119,0.0120655677846355,0.0418193735356544,0.0234035283621976,0.0220418406954613,0.162580130280328,0.0752600028497437,0.0176301463484601
0.0660834113706652,0.0129270338652481,0.0428438635062936,0.0250550428280732,0.0213157046094957,0.163390173765294,0.0741612408394894,0.0177398121297301
0.0648069206778926,0.0140313555148975,0.0437704895382852,0.0267908743999544,0.0205879706278712,0.163809148603842,0.0731009974967188,0.0178343180853205
0.0638343834515538,0.0153743947304293,0.0445905896177413,0.0285922196309557,0.0198719121164619,0.163854495863675,0.0720916695121408,0.0179165503880475
0.0631582505610713,0.0169491217294711,0.0452971870280407,0.0304388639360561,0.0191801964694822,0.163552006406429,0.0711452551989411,0.0179898845766326
0.0627669437344545,0.0187456466154976,0.0458850739945739,0.0323094734667616,0.0185247051548604,0.162935293760922,0.0702732602092068,0.0180581120509719
0.0626453176345907,0.0207512856261724,0.0463508749269502,0.0341819156167332,0.01791636914504,0.162045084970024,0.0694865914306871,0.0181253554249663
0.0627751669689104,0.0229506623877691,0.0466930873348902,0.0360336026424726,0.0173650224976659,0.160928348504112,0.0687954369934469,0.0181959741797353
0.0631357610002025,0.025325844443691,0.0469120967192626,0.0378418516251688,0.0168792762688793,0.159637280312679,0.0682091298284803,0.0182744616264734
0.0637043884872506,0.0278565147525238,0.0470101605037124,0.0395842527083292,0.0164664140822799,0.158228165800581,0.0677359943578577,0.0183653342859074
0.0644568982380627,0.0305201771299857,0.0469913565264935,0.0412390369661964,0.0161323098430048,0.156760133410831,0.0673831794809815,0.0184730153928335
0.0653682233906341,0.0332923942439472,0.0468614938267326,0.0427854356807557,0.0158813675523936,0.155293819259661,0.0671564840348719,0.0186017150276788
0.0664128801007111,0.0361470567854038,0.0466279866085663,0.0442040239354605,0.0157164830101321,0.153889970346807,0.067060181596271,0.0187553100137668
0.0675654321874503,0.039056682458338,0.0462996950053233,0.0454770425852529,0.0156390273221851,0.152608022290036,0.0670968501459399,0.0189372268990296
0.0688009122066349,0.0419927429857939,0.0458867372922369,0.0465886929730123,0.0156488524037037,0.15150469252915,0.0672672114746528,0.01915033094764
0.0700951887962841,0.0449260161570561,0.0454002775276116,0.0475253978578164,0.0157443188461008,0.150632629259484,0.0675699865830145,0.0193968234563549
0.0714252725227638,0.0478269585027576,0.0448522922450965,0.0482760210569404,0.0159223463820594,0.150039151269391,0.0680017753345751,0.0196781494752624
0.0727695576567269,0.050666093305229,0.0442553210977086,0.0488320388841465,0.0161784866562076,0.149765108839903,0.0685569693576212,0.0199949182840176
0.0741080034162329,0.0534144085540055,0.0436222085160726,0.0491876587607071,0.0165070173131661,0.14984389281863,0.0692277057764674,0.0203468394831604
0.0754222628902343,0.0560437598171455,0.0429658451289761,0.049339883470809,0.0169010558094531,0.150300616299744,0.0700038669712524,0.0207326779394005
0.0766957693060006,0.0585272732178338,0.042298917918897,0.0492885221091566,0.0173526908146416,0.151151489370526,0.0708731299564978,0.0211502307673563
0.0779137877539766,0.0608397430450686,0.0416336768282927,0.0490361495995122,0.0178531284793014,0.152403401714636,0.0718210679718749,0.0215963289188169
0.0790634385150907,0.0629580167801608,0.0409817239213412,0.0485880158714338,0.0183928502375456,0.154053721150161,0.0728313052564062,0.0220668649601506
0.0801336972572787,0.0648613587724076,0.040353830051656,0.0479519055203702,0.0189617783506804,0.156090309530183,0.0738857233368405,0.0225568475567397
0.0811153767813606,0.0665317839195305,0.0397597829112335,0.0471379504607565,0.0195494452932344,0.158491751780955,0.0749647148707593,0.0230604821266922
0.0820010937505002,0.0679543544796848,0.0392082687912053,0.0461584009919412,0.0201451634172941,0.1612277895876,0.0760474801712751,0.0235712760268761
0.0827852218694521,0.0691174354821618,0.0387067886047236,0.0450273633797288,0.0207381919361391,0.164259948140006,0.0771123611548585,0.0240821655461625
0.0834638310563832,0.0700129056112635,0.0382616074212153,0.0437605132733067,0.0213178987087731,0.167542341707939,0.0781372060811681,0.0245856610635496
0.0840346112448032,0.0706363197870548,0.0378777359371529,0.0423747936197441,0.0218739141881336,0.171022640524406,0.0790997560133564,0.0250740061549473
0.0844967798910512,0.0709870179569189,0.037558941326349,0.0408881042787308,0.0223962746174797,0.174643176266945,0.0799780425391628,0.0255393462858564
0.0848509731942402,0.071068174536181,0.0373077835458122,0.039318989769927,0.0228755520700841,0.178342156386442,0.0807507871396584,0.0259739029297246
0.0850991207525502,0.0708867853456049,0.0371256723310339,0.0376863316123661,0.0233029703693819,0.182054951837409,0.0813977945594472,0.0263701492304117
0.0852443014010537,0.0704535925048644,0.0370129406194847,0.0360090518642648,0.0236705076078172,0.18571542168226,0.081900333666073,0.0267209832679359
0.08529057701345,0.0697829506517708,0.036968931666085,0.0343058342139843,0.0239709870176761,0.18925724178874,0.082241498186753,0.0270198943514584
0.085242803307228,0.0688926384640566,0.0369920986616255,0.0325948681470534,0.0241981579074727,0.192615211456062,0.0824065374575964,0.0272611171096788
0.085106420850079,0.0678036178796746,0.0370801161826873,0.0308936204703422,0.0243467679080514,0.195726518248685,0.0823831468679447,0.0274397683630343
0.0848872326106712,0.0665397422565027,0.0372300021065676,0.0292186370775782,0.0244126277215897,0.198531944328853,0.0821617099168456,0.0275519629548132
0.0845911744057412,0.0651274158457978,0.0374382479882288,0.0275853764343291,0.0243926697558859,0.200976994951469,0.0817354872366091,0.0275949063504745
0.0842240826903344,0.0635952096573022,0.03770095622962,0.0260080747908513,0.0242850018268256,0.203012923497381,0.0811007503598386,0.0275669631365198
0.0837914637495778,0.0619734413955415,0.0380139831329736,0.0244996416635781,0.0240889563206527,0.20459762405384,0.0802568577491744,0.0274677009150188
0.0832982701500895,0.0602937281248659,0.038373087246185,0.0230715831393327,0.0238051343026133,0.205696365947729,0.0792062688465984,0.0272979085603455
0.0827486924760168,0.0585885191310877,0.0387740818659072,0.0217339503592606,0.0234354433382754,0.20628235367441,0.077954492171869,0.0270595875022021
0.0821459750792165,0.056890614601346,0.0392129893573655,0.0204953109170037,0.0229831269794662,0.206337107019954,0.0765099668688503,0.0267559154402774
0.0814922629196015,0.0552326753370702,0.0396861936542556,0.0193627413746387,0.0224527830218108,0.205850665631419,0.0748838816039578,0.0263911834145896
0.0807884835072323,0.0536467298754094,0.0401905864359756,0.0183418391712513,0.0218503673914586,0.204821625788635,0.0730899376205729,0.0259707087591806
0.0800342659618426,0.0521636869769121,0.0407237021072075,0.0174367517014888,0.0211831810646336,0.203257013493839,0.071144062569455,0.025500727474947
0.0792278994381633,0.0508128622169542,0.0412838363207811,0.016650219789993,0.0204598383256115,0.201171993019651,0.0690640806086698,0.0249882695517443
0.0783663348393884,0.0496215266396859,0.0418701417983354,0.0159836328229827,0.0196902152648841,0.198589411137805,0.0668693454004234,0.0244410200502488
0.0774452353167517,0.0486144835863422,0.0424826941643398,0.0154370933790414,0.0188853772933513,0.195539184934663,0.0645803456676407,0.0238671683163514
0.076459081042936,0.0478136784996254,0.0431225208836989,0.0150094898715843,0.0180574840919611,0.19205755161959,0.0622182954799931,0.0232752480259844
0.0754013315276643,0.0472378464377381,0.0437915886232355,0.0146985760074769,0.0172196707933084,0.18818620759121,0.0598047215714993,0.0226739715438167
0.0742646453640957,0.0469022026740226,0.0444927476934947,0.014501055621052,0.0163859054530167,0.183971367535959,0.0573610582415297,0.022072062837849
0.0730411542749154,0.046818182327708,0.0452296354018693,0.0144126711292858,0.0155708244911979,0.179462771060114,0.0549082591452982,0.0214780935229845
0.0717227856512497,0.0469932348320529,0.0460065418437428,0.0144282940149315,0.0147895491277718,0.174712657850436,0.0524664352794824,0.0209003262964903
0.0703016248422446,0.0474306778466255,0.0468282414377896,0.0145420163162064,0.0140574864162015,0.169774728786629,0.0500545284840682,0.0203465691666143
0.0687703053941111,0.0481296133035616,0.0476997929891684,0.0147472427041063,0.0133901183050932,0.1647031113999,0.0476900286556573,0.0198240429217327
0.0671224131462985,0.0490849067562845,0.0486263121435822,0.0150367830012051,0.0128027818979904,0.159551351389676,0.0453887408032317,0.0193392636211109
0.0653528895054334,0.0502872306961555,0.0496127226654529,0.0154029447666078,0.0123104442472572,0.154371454927982,0.0431646063734829,0.0188979415090711
0.0634584205433329,0.0517231726923437,0.0506634958525132,0.0158376250560108,0.0119274754519139,0.14921300708277,0.0410295822797526,0.0185048975443042
0.061437800985445,0.0533754093606955,0.0517823894369048,0.0163324001128511,0.0116674242079284,0.144122388646316,0.038993580079375,0.0181639986050124
0.059292264117698,0.0552229465041567,0.0529721977658926,0.0168786117332418,0.0115428000933626,0.139142107409258,0.0370644661703547,0.0178781123082754
0.0570257687112137,0.0572414240114429,0.0542345237865247,0.0174674493239798,0.0115648667336798,0.134310253496324,0.0352481217291721,0.0176490821987987
0.0546452327185318,0.0594034821173912,0.0555695812428308,0.0180900271567402,0.0117434496653786,0.12966008444775,0.0335485588329821,0.0174777237362285
0.0521607034449053,0.0616791844277971,0.0569760337219291,0.0187374568613983,0.0120867623020009,0.125219743909835,0.0319680870761051,0.0173638409549734
0.0495854565327399,0.0640364925326869,0.058450875970194,0.0194009155112679,0.0126012529612162,0.121012116196323,0.0305075230872723,0.0173062628790769
0.0469360204557361,0.0664417862330623,0.0599893618271556,0.0200717094658137,0.013291475422948,0.117054815713028,0.0291664339303674,0.0173028979744469
0.0442321276708703,0.0688604216208045,0.0615849818421529,0.0207413337542634,0.0141599849117768,0.113360305051301,0.0279434047488486,0.017350804407693
0.0414965967183213,0.0712573167876226,0.0632294920560418,0.0214015269493331,0.0152072607485415,0.109936130701157,0.0268363212853787,0.0174462737281033
0.0387551505822502,0.0735975532818835,0.0649129937112287,0.0220443223352083,0.0164316563164778,0.106785262018603,0.0258426587591856,0.0175849257153243
0.0360361757465639,0.0758469813042451,0.0666240620672646,0.0226620972132917,0.0178293765453325,0.10390651573393,0.0249597693468071,0.0177618124099275
0.0333704252091186,0.077972817429713,0.0683499211749911,0.0232476227723669,0.019394482880569,0.101295044232227,0.0241851605282257,0.0179715296183009
0.0307906687191886,0.0799442241280836,0.0700766601755017,0.0237941167056574,0.021118925667911,0.0989428636735883,0.023516756018581,0.0182083343007131
0.028331294659464,0.081732859290269,0.0717894848549725,0.0242952999548858,0.0229926039378039,0.0968393994904484,0.0229531310528483,0.0184662660603008
0.0260278696759857,0.0833133816446879,0.0734729955583367,0.0247454581650191,0.0250034524785277,0.0949720300908921,0.022493714942949,0.0187392703742023
0.0239166637710215,0.0846638969267981,0.075111480406981,0.0251395076655521,0.0271375555855608,0.0933266113810794,0.0221389556559683,0.0190213204574179
0.0220341496830375,0.0857663316517937,0.0766892126874029,0.0254730647948966,0.0293792861292306,0.091887963737786,0.0218904430892318,0.0193065341673234
0.0204164857584264,0.0866067256409457,0.0781907433013917,0.0257425161698052,0.0317114681953608,0.0906403032081446,0.0217509893094223,0.0195892823713324
0.0190989911578932,0.0871754391361584,0.0796011819082301,0.0259450864267301,0.0341155617674938,0.0895676037337452,0.0217246649488247,0.0198642857072556
0.0181156213117347,0.0874672731257547,0.0809064617948002,0.0260788994720688,0.036571868445011,0.0886538854513828,0.0218167910047843,0.0201266975547426
0.0174984503751528,0.0874815010566135,0.0820935825252789,0.026143029570344,0.0390597575212404,0.0878834312410771,0.0220338849254738,0.0203721720647792
0.0172771663333934,0.0872218084164984,0.0831508233402328,0.0261375394200335,0.0415579113797165,0.0872409362593138,0.0223835602089476,0.0205969168689681
0.0174785834414533,0.0866961375755448,0.0840679220038312,0.0260635030594956,0.0440445879626976,0.0867115946798451,0.0228743802374524,0.0207977302100577
0.0181261758794099,0.0859164395790624,0.0848362176989515,0.0259230113888134,0.0464978966650169,0.0862811292858121,0.0235156692404214,0.0209720218355791
0.0192396359751379,0.08489834042748,0.0854487598191616,0.0257191576738882,0.0488960832001337,0.0859357738764961,0.0243172853545341,0.0211178169510092
0.0208344602432692,0.0836607343883588,0.0859003847808215,0.0254560008435046,0.0512178188934925,0.0856622227297034,0.0252893620434196,0.0212337433206682
0.0229215669103909,0.0822253190977448,0.0861877613056416,0.0251385060162412,0.0534424902232699,0.0854475628215506,0.026442024310271,0.0213190029189959
0.0255069495130532,0.0806160860220288,0.0863094045031857,0.0247724637821209,0.0555504849118681,0.0852792026521976,0.02778508552194,0.0213733308049247
0.0285913723793602,0.0788587773821584,0.086265661084616,0.0243643913464389,0.057523471080389,0.0851448087694525,0.0293277302385503,0.0213969446169918
0.0321701150053568,0.0769803198482435,0.0860586697555536,0.0239214190526552,0.0593446654482153,0.085032259478577,0.0310781887784584,0.0213904879970982
0.0362327730916108,0.0750082465515444,0.0856923001265901,0.0234511653601927,0.0609990849419781,0.0849296241411688,0.0330434102027288,0.02135497055689
0.0407631239164185,0.0729701209546925,0.0851720713178668,0.0229616032107082,0.0624737739702316,0.084825174463064,0.0352287415435797,0.0212917063721503
0.0457390628117228,0.0708929775971372,0.0845050508862704,0.0224609212390721,0.0637579986246709,0.0847074308125772,0.0376376218968245,0.0212022527786214
0.0511326165807457,0.0688027948680328,0.0836997359977433,0.0219573839357162,0.0648434000527119,0.0845652432858882,0.0402712999681319,0.0210883512829175
0.0569100394680876,0.0667240134387536,0.0827659195023456,0.0214591951148398,0.0657241018471229,0.0843879051654633,0.0431285826404768,0.0209518724332064
0.0630319976961252,0.0646791110082422,0.0817145421161496,0.0209743687147536,0.0663967693757364,0.0841652948227682,0.0462056206127372,0.0207947663438035
0.0694538491303462,0.0626882404420706,0.0805575301304594,0.0205106102105677,0.0668606209417014,0.0838880396231536,0.0494957358653871,0.0206190201899368
0.0761260247048409,0.0607689353131394,0.0793076187526352,0.0200752110515363,0.0671173903787451,0.0835476925923953,0.0529892947659071,0.0204266234458
0.0829945172102463,0.0589358846781013,0.0779781638712871,0.0196749577579435,0.067171239426538,0.0831369118173038,0.0566736298513075,0.0202195410242315
0.0900014805764852,0.0572007775552269,0.076582947300369,0.0193160566351574,0.067028618913505,0.0826496340939545,0.0605330126553769,0.019999693813884
0.0970859392811096,0.0555722168171479,0.0751359803877965,0.0190040743264605,0.0666980810236649,0.0820812361360458,0.0645486794906664,0.0197689453169992
0.104184603753394,0.0540557018099442,0.0736513089265331,0.0187438935472347,0.0661900490908624,0.0814286764325176,0.0686989119223287,0.0195290922255582
0.111232783562989,0.05265367857523,0.0721428216213401,0.0185396826182223,0.0655165542977639,0.0806906090867612,0.0729591735125585,0.0192818563017613
0.118165385563946,0.0513656556088465,0.0706240660069184,0.0183948772232475,0.0646909489119012,0.0798674610560401,0.0773023035420544,0.0190288752418495
0.124917979869738,0.0501883812688733,0.0691080782155157,0.0183121731813996,0.0637276041887458,0.0789614673228773,0.0816987662848492,0.0187716911907585
0.131427913249586,0.0491160766301458,0.0676072345619236,0.018293529694221,0.062641600570919,0.0779766627775888,0.0861169520331641,0.0185117367282338
0.137635446457018,0.0481407159411428,0.0661331324442987,0.018340183138854,0.0614484190703559,0.0769188324601446,0.0905235250572471,0.0182503187957013
0.143484887729892,0.047252346424299,0.0646965055673383,0.0184526716867923,0.0601636443371351,0.0757954217370755,0.0948838140935725,0.017988600943937
0.148925690003916,0.0464394396284129,0.0633071751948246,0.0186308706649366,0.0588026903873579,0.0746154063123369,0.0991622417837578,0.0177275842121987
0.153913477509705,0.0456892672606535,0.0619740360845502,0.0188740377922435,0.0573805585869616,0.0733891222079353,0.103322789777252,0.0174680875708219
0.158410969901908,0.0449882947686462,0.0607050729206617,0.0191808666029357,0.0559116346940118,0.0721280590581785,0.107329495503672,0.0172107298200251
0.162388777675279,0.0443225854158135,0.0595074003538135,0.0195495456880654,0.0544095285869207,0.0708446243737262,0.111146974905484,0.0169559154461868
0.165826048671276,0.0436782060669474,0.0583873176344646,0.0199778208508597,0.0528869571691026,0.0695518892297686,0.114740962704559,0.0167038268149818
0.168710948609052,0.0430416241523483,0.0573503680009407,0.0204630569576734,0.0513556678184314,0.0682633256237968,0.118078857803352,0.0164544244498308
0.171040956744272,0.0424000845889363,0.0564013939194888,0.0210022963340213,0.0498263970057254,0.0669925441554555,0.121130256727059,0.016207456462251
0.172822954856335,0.0417419563183732,0.055544581694496,0.0215923110995122,0.0483088570201339,0.0657530402648237,0.12386745501585,0.0159624775005248
0.174073091038475,0.0410570402639785,0.0547834917351259,0.0222296477539669,0.0468117435621094,0.0645579575727846,0.126265897221906,0.0157188768263232
0.174816410724942,0.0403368330526652,0.0541210722606672,0.0229106632771392,0.0453427580578437,0.0634198760427494,0.128304560595821,0.0154759145241248
0.175086262112161,0.0395747425844747,0.0535596537619659,0.0236315524915318,0.0439086399259095,0.0623506302113652,0.129966263926365,0.0152327644026528
0.174923496032001,0.0387662516428311,0.0531009210972032,0.0243883661917638,0.0425152044299312,0.0613611596928973,0.13123789847604,0.0149885616278535
0.174375486460843,0.0379090252594165,0.0527458619861282,0.0251770191722899,0.0411673809024198,0.0604613911721495,0.132110579589698,0.0147424525401352
0.173494996212438,0.0370029585630855,0.0524946945023267,0.0259932877273182,0.0398692457357492,0.059660148721204,0.132579715120273,0.0144936438528852
0.172338909348697,0.0360501646635111,0.0523467801845394,0.0268327975443166,0.0386240460750505,0.0589650885438329,0.132644985147947,0.0142414487250582
0.170966854011787,0.0350549054943269,0.0523005320087506,0.0276910046178118,0.0374342130818737,0.0583826548036569,0.132310230650444,0.0139853278776184
0.16943974607457,0.0340234709521896,0.0523533269211804,0.0285631731754964,0.0363013665315918,0.057918053354801,0.131583255769509,0.0137249246272718
0.167818291468999,0.0329640122158166,0.0525014311106788,0.0294443550566888,0.0352263140296178,0.0575752390892883,0.130475555876065,0.0134600930563147
0.1661614902286,0.0318863346080515,0.0527399435060747,0.0303293743949973,0.034209047891326,0.0573569120196578,0.129001988671046,0.0131909183811097
0.16452518667459,0.0308016555587563,0.0530627599888193,0.031212820485194,0.0332487420164964,0.0572645188381873,0.127180406125306,0.0129177283878128
0.16296070761124,0.0297223344335224,0.0534625580813666,0.0320890510539845,0.0323437513087168,0.0572982594725913,0.125031261290371,0.0126410951397016
0.161513624406485,0.0286615822743104,0.0539307999454241,0.0329522077687795,0.0314916171503695,0.0574570998365512,0.122577198981248,0.0123618269790776
0.160222666773826,0.0276331599867563,0.0544577509998034,0.0337962454296233,0.0306890832923121,0.0577387914933531,0.119842636315903,0.0120809517426433
0.1591188086202,0.026651072914671,0.0550325125889162,0.0346149758012257,0.0299321266342176,0.058139898066851,0.116853338600347,0.0117996926717857
0.158224541446736,0.0257292685657604,0.0556430694399204,0.0354021265418482,0.029216006561932,0.058655828840017,0.113635997303332,0.0115194385111236
0.157553348433748,0.0248813432688475,0.0562763549901145,0.0361514152840241,0.0285353351309227,0.059280881284976,0.110217818953423,0.0112417089511833
0.157109391348332,0.024120262888841,0.0569183386457407,0.0368566385746812,0.0278841691164123,0.0600082944694135,0.106626135640603,0.0109681163639447
0.156887421221697,0.0234581021301299,0.0575541381030698,0.0375117748106082,0.0272561240305483,0.0608303138583772,0.102888048201116,0.0107003248683582
0.156872920971844,0.0229058061793984,0.0581681585175641,0.0381110991754459,0.0266445094305921,0.0617382666339177,0.0990301111058751,0.0104400080006857
0.157042483167023,0.0224729773783818,0.0587442600881813,0.0386493070966087,0.026042483939957,0.0627226466225565,0.0950780638383422,0.0101888064653661
0.157364419294076,0.0221676885140584,0.0592659558997369,0.0391216417208679,0.0254432272211323,0.0637732086672078,0.0910566094494799,0.00994828744127447
0.157799589315692,0.0219963235962721,0.0597166412050691,0.0395240207775133,0.0248401249173152,0.0648790726152681,0.0869892388608278,0.00971990664706476
0.158302433173727,0.0219634467541125,0.0600798532295253,0.0398531587595348,0.0242269618150082,0.0660288361055976,0.0828980991266316,0.00950497403278303
0.15882217983696,0.0220716998514261,0.0603395578936006,0.0401066811860471,0.0235981182967626,0.0672106931459259,0.07880390437782,0.00930462384306904
0.1593042040882,0.022321729169059,0.0604804571353671,0.0402832282966522,0.0229487652557888,0.0684125538034966,0.0747258888124771,0.0091197898575453
0.159691495207188,0.0227121408800489,0.0604883079498985,0.0403825453180492,0.0222750525538783,0.0696221606501062,0.0706818013051863,0.0089511866290451
0.159926194768838,0.0232394846549786,0.0603502429092021,0.0404055553125933,0.021574285526967,0.0708271996807382,0.0666879405142536,0.00879929733967341
0.159951155903689,0.0238982651244353,0.0600550822951599,0.04035440961242,0.0208450834705428,0.0720154059672328,0.0627592273917618,0.00866436857220383
0.159711476623523,0.0246809818289758,0.0595936292126655,0.0402325111706787,0.020087514290889,0.0731746656016411,0.0589093089638481,0.00854641210015879
0.159155965239835,0.0255781990515728,0.0589589396592073,0.0400445078262443,0.0193032006721856,0.0742931145076584,0.0551506846171291,0.0084452137616597
0.158238504291421,0.0265786470007195,0.0581465585517541,0.0397962546653459,0.0184953946764991,0.0753592328933017,0.0514948452992885,0.00836034945138913
0.156919287282912,0.0276693550829194,0.0571547114349978,0.0394947462894644,0.0176690189966783,0.0763619339697733,0.0479524170406758,0.00829120811424924
0.155165906185462,0.0288358169388065,0.0559844423801601,0.0391480199973812,0.0168306735762034,0.0772906472563815,0.0445333022605266,0.00823702131071986
0.152954265719268,0.0300621859550246,0.0546396917577862,0.0387650300986986,0.0159886061153318,0.0781353989532645,0.0412468143824673,0.00819689852230902
0.150269298064679,0.0313314990779714,0.0531273117475214,0.0383554935976628,0.0151526451009318,0.0788868931378667,0.0381018022850717,0.00816986703820481
0.147105455686482,0.032625925866006,0.0514570208028939,0.0379297090943929,0.0143340950599077,0.0795365970578577,0.0351067605499026,0.00815491510884221
0.143466970900555,0.0339270389044103,0.0496412993720033,0.0374983531468835,0.0135455954339302,0.0800768313714897,0.0322699203902276,0.00815103705663224
0.139367884602944,0.0352161011089955,0.047695228395757,0.037072260273173,0.0128009461461831,0.0805008629903485,0.0295993163170985,0.00815727910486455
0.13483185800675,0.0364743651267428,0.0456362720888066,0.0366621932679376,0.0121149039723601,0.0808029962707027,0.0271028252981929,0.00817278466808356
0.129891786122616,0.0376833799558926,0.0434840086493558,0.0362786097161749,0.0115029540103041,0.0809786585514986,0.0247881774939787,0.00819683765313013
0.124589230109295,0.0388252999011644,0.0412598158003357,0.0359314299782138,0.0109810603501211,0.08102447783414,0.0226629395817265,0.00822890214048925
0.118973683489413,0.0398831908070468,0.0389865207123639,0.0356298122762306,0.0105654001472355,0.0809383522007691,0.0207344724644338,0.00826865690382016
0.113101689211663,0.0408413278416549,0.0366880246444309,0.0353819412649461,0.0102720857111078,0.0807195105563402,0.0190098648225263,0.00831602353229268
0.107035829418733,0.0416854777861382,0.0343889117836424,0.0351948368376187,0.0101168796278585,0.0803685623080119,0.0174958435662632,0.00837118718629028
0.100843614678853,0.0424031575392304,0.0321140509416179,0.035074189457054,0.0101149081237785,0.079887532384458,0.016198662695563,0.00843460902476
0.0945963023842935,0.0429838605212879,0.0298881986394105,0.0350242269914469,0.0102803777990842,0.0792798793021071,0.0151239732119356,0.00850702925557577
0.0883676742005102,0.0434192441810987,0.0277356118480737,0.0350476163678948,0.0106263005608907,0.0785504965157933,0.0142766780050239,0.00858945998859781
0.0822327999283461,0.0437032743276816,0.0256796776217678,0.0351454019879963,0.011164231124674,0.0777056987947051,0.0136607765890317,0.00868316765605147
0.0762668107507215,0.0438323244417529,0.0237425654011551,0.035316981950205,0.0119040209311759,0.0767531943877888,0.0132792049026111,0.00878964538531856
0.0705437002792539,0.0438052292263573,0.0219449063467211,0.0355601224660015,0.0128535918805755,0.0757020412602581,0.0131336751318362,0.00891057600788985
0.0651351684849343,0.0436232912200578,0.0203055028865288,0.0358710100710826,0.0140187329867519,0.0745625843562496,0.013224520160595,0.00904778636217915
0.0601095216105206,0.0432902391918191,0.0188410710914694,0.0362443399930364,0.0154029228638578,0.0733463715584018,0.0135505471864086,0.00920319367058664
0.0555306401246354,0.0428121387924975,0.0175660184321365,0.0366734375770645,0.0170071807609398,0.072066047863911,0.0141089050674403,0.00937874529150456
0.0514570262561944,0.0421972587842573,0.0164922593701987,0.0371504087582015,0.0188299484978117,0.0707352290380694,0.0148949697379234,0.00957635382360715
0.0479409422303783,0.0414558983421981,0.0156290707125839,0.0376663154248666,0.0208670050827204,0.0693683564434949,0.0159022515029891,0.00979783001326101
0.0450276496519497,0.0406001812308277,0.014982987901209,0.0382113716144961,0.0231114152828074,0.0679805332355115,0.0171223274058854,0.0100448159674903
0.0427547592842618,0.0396438219734927,0.0145577427944298,0.0387751560578721,0.0255535132628044,0.0665873400095069,0.0185448012225507,0.0103187209127613
0.0411516986269024,0.0386018692976824,0.014354242953553,0.0393468354299861,0.0281809225914711,0.0652046277786963,0.0201572931446815,0.0106206615056156
0.040239302360692,0.037490433060232,0.0143705917668562,0.0399153917144733,0.030978614207485,0.063848288403463,0.0219454610448354,0.0109514086147871
0.0400295284721449,0.0363264011783308,0.0146021479205557,0.0404698472347904,0.0339290040017016,0.0625340060486682,0.023893055241825,0.0113113424346669
0.0405253011355196,0.035127152253739,0.0150416219364175,0.0409994819926725,0.0370120911813141,0.061276996169101,0.0259820086083092,0.0117004176149366
0.0417204801859059,0.0339102686282494,0.0156792069702387,0.041494039338782,0.0402056374538028,0.0600917393901099,0.0281925634365418,0.01211813971701
0.0435999560755413,0.03269325447489,0.0165027409553045,0.041943916937601,0.0434853857684175,0.0589917163733349,0.0305034355889976,0.0125635537863219
0.0461398684201132,0.0314932637877836,0.0174978974260138,0.0423403398306516,0.0468253164198459,0.0579891485527524,0.032892015204852,0.0130352453203489
0.0493079455109026,0.0303268429883411,0.0186484027264532,0.042675511281163,0.0501979378217574,0.0570947502632822,0.0353346018971515,0.0135313534448135
0.0530639614064417,0.0292096919464298,0.0199362774714797,0.0429427364429509,0.0535746090241615,0.0563174996662682,0.0378066712178697,0.0140495955820091
0.0573603063150191,0.0281564460673794,0.0213420998314057,0.0431365148569423,0.056925890888892,0.0556644375436523,0.0402831683624025,0.0145873023442085
0.062142664770176,0.0271804815784377,0.0228452875022413,0.0432526000741978,0.0602219225975192,0.0551405032909062,0.0427388246779541,0.0151414610545791
0.0673507943483799,0.0262937462758087,0.0244243944732582,0.0432880273443008,0.0634328197135536,0.0547484159327338,0.0451484922519747,0.0157087663004131
0.0729193952067342,0.0255066181843337,0.0260574181598077,0.043241112116315,0.0665290891694288,0.0544886056912342,0.0474874911008862,0.0162856761187408
0.078779057901093,0.0248277942613262,0.0277221121829098,0.0431114222339365,0.069482054979514,0.0543591996799128,0.0497319621074637,0.0168684725169917
0.084857274676155,0.0242642103648073,0.0293963001297719,0.0428997257178097,0.0722642860221042,0.054356063407183,0.0518592178798621,0.0174533247776488
0.0910794982455743,0.0238209928189105,0.0310581860780346,0.0426079157306788,0.0748500147731884,0.0544728974498189,0.0538480839084645,0.0180363534889202
0.0973702320173274,0.0235014414363212,0.0326866583560469,0.0422389154053978,0.0772155349639072,0.0547013865009372,0.0556792232276995,0.0186136929985859
0.103654136396796,0.02330704347434,0.0342615835104862,0.0417965668999892,0.0793395673866631,0.0550313964426217,0.0573354380219655,0.0191815502891327
0.109857136444861,0.0232375172887681,0.0357640872365892,0.0412855102268759,0.0812035859858745,0.0554512134256415,0.0588019405418505,0.0197362589970865
0.115907515640861,0.023290883563164,0.0371768180352273,0.0407110572768624,0.0827920996365617,0.0559478169899883,0.0600665845998636,0.020274328141596
0.121736977847946,0.0234635614936105,0.038484188414825,0.0400790651943403,0.0840928868811546,0.056507178340334,0.0611200497188909,0.0207924856912134
0.127281655936749,0.0237504872701364,0.0396725882695597,0.0393958121525947,0.085097180121529,0.0571145756449404,0.0619559727353174,0.0212877170426721
0.132483044100351,0.0241452521975024,0.0407305656071755,0.0386678783133988,0.0857997936817298,0.0577549198136036,0.0625710248479474,0.0217572979526923
0.137288833245263,0.0246402573991114,0.0416489708104192,0.0379020347683791,0.086199189947012,0.0584130853775939,0.0629649339092576,0.0221988211785788
0.141653633957927,0.0252268812286514,0.0424210618362118,0.0371051427158984,0.0862974803867109,0.0590742408894408,0.0631404512552793,0.0226102164315971
0.145539576897533,0.0258956549012079,0.0430425688241427,0.0362840638069323,0.0861003623797331,0.0597241715094361,0.0631032612966302,0.0229897639982116
0.148916782846215,0.0266364419695418,0.0435117169369434,0.03544558135792,0.0856169965773343,0.0603495843365198,0.0628618330286035,0.0233361031183587
0.151763692598962,0.0274386180489639,0.0438292054942639,0.0345963317447707,0.084859831410888,0.0609383862140398,0.062427215713016,0.0236482365200144
0.154067244491655,0.0282912482629178,0.043998140479042,0.0337427455236631,0.0838443803497175,0.0614799247341828,0.0618127848002732,0.0239255321414946
0.155822890153062,0.0291832607431601,0.0440239179946706,0.0328909980329511,0.0825889548021553,0.0619651856466749,0.0610339470981862,0.0241677222637877
0.157034446993542,0.0301036146761499,0.043914058651068,0.0320469688428002,0.0811143541339325,0.0623869429942261,0.0601078150428653,0.0243748997182691
0.157713795179852,0.0310414607237321,0.0436779962678845,0.0312162083105549,0.0794435154669242,0.0627398607271416,0.0590528585572868,0.0245475108464805
0.157880432892277,0.0319862909216471,0.0433268272845862,0.0304039084481587,0.0776011288271468,0.0630205449749307,0.0578885411190687,0.0246863452565813
0.157560903620201,0.0329280752452698,0.0428730285314648,0.029614875221856,0.0756132262825493,0.0632275449005493,0.0566349461488509,0.0247925227629865
0.156788105553523,0.0338573829601985,0.0423301505233565,0.0288535003510575,0.0735067553841361,0.0633612997624574,0.0553124006926856,0.0248674778136534
0.155600492448322,0.034765488207873,0.0417124931173416,0.0281237321799403,0.0713091464606986,0.0634240319976228,0.0539411047335858,0.0249129410422109
0.15404118005847,0.0356444605102785,0.0410347714754578,0.0274290466038571,0.0690478808764082,0.0634195899516682,0.0525407754349349,0.0249309168607339
0.152156979588474,0.0364872415833088,0.0403117820153453,0.0267724196748422,0.0667500657987033,0.063353247693911,0.0511303154622239,0.0249236559802873
0.149997385734629,0.0372877097341923,0.0395580791624718,0.0261563031205656,0.0644420214886432,0.0632314716856057,0.0497275129811625,0.0248936224457414
0.147613548657718,0.0380407320980007,0.0387876734936326,0.0255826033453673,0.0621488887033995,0.0630616640329217,0.0483487788656111,0.0248434556710669
0.145057255747924,0.0387422034271913,0.0380137603488963,0.0250526645356382,0.0598942651570218,0.0628518902695441,0.0470089253368568,0.0247759283812309
0.142379942897773,0.0393890689513024,0.0372484859004553,0.0245672572232623,0.0576998801713154,0.0626105983884443,0.0457209896607891,0.0246939009890972
0.13963175015901,0.0399793285310741,0.0365027555084882,0.0241265744535206,0.0555853153016957,0.0623463365246938,0.0444961057738737,0.0246002724348965
0.13686063427954,0.0405120199901262,0.0357860871289832,0.0237302380351453,0.0535677761214213,0.0620674786240567,0.0433434251573361,0.0244979277724317
0.13411155009151,0.0409871809063424,0.0351065106814922,0.0233773170125894,0.051661917487585,0.0617819692361869,0.0422700862426003,0.0243896837318005
0.131425713442103,0.0414057898640879,0.0344705124926157,0.0230663596174332,0.0498797225041856,0.0614970990025286,0.041281230062863,0.0242782345225047
0.128839959592313,0.0417696896017036,0.033883022411212,0.0227954388556486,0.0482304342861625,0.0612193209116347,0.040380059062662,0.0241661006943535
0.126386211532966,0.0420814949579687,0.0333474404593768,0.0225622109024755,0.0467205393211103,0.0609541144692786,0.0395679355490779,0.0240555836332926
0.124091070932034,0.0423444877176997,0.0328656997590549,0.0223639847632033,0.0453538013862943,0.060705901552876,0.0388445157060794,0.0239487273739883
0.121975540065423,0.0425624993004704,0.0324383621613766,0.0221978011330373,0.0441313451779909,0.060478014267604,0.0382079139879202,0.0238472884651647
0.120054878831455,0.0427397821818047,0.0320647420777844,0.0220605177966553,0.0430517885846758,0.0602727117344255,0.037654891103968,0.0237527140506937
0.118338599350744,0.0428808722575372,0.0317430532051362,0.0219488980567492,0.0421114214894414,0.060091239499076,0.0371810576237596,0.0236661281143315
0.116830600609715,0.0429904463771747,0.0314705727504554,0.0218596978541542,0.0413044272071204,0.0599339226219419,0.0367810853656504,0.0235883258706724
0.115529444485396,0.0430731810426783,0.0312438177437301,0.0217897470311919,0.0406231410974108,0.0598002825132233,0.036448920157795,0.023519776474837
0.11442877072931,0.0431336189522381,0.0310587274245944,0.0217360208253478,0.0400583403104524,0.0596891685338455,0.0361779915526934,0.0234606344354252
0.113517843119344,0.0431760492863311,0.0309108452515653,0.021695698983183,0.0395995588124328,0.05959889752229,0.035961416582915,0.023410760145028
0.112782213725828,0.0432044060131592,0.0307954947996329,0.0216662114234252,0.0392354221694986,0.0595273962926655,0.0357921948146906,0.0233697495484061
0.112204486850718,0.0432221872094251,0.0307079452540327,0.0216452705661765,0.0389539963962568,0.0594723423708723,0.0356633911440198,0.0233369721217331
0.111765158935384,0.0432323977413957,0.0306435631939758,0.0216308907708738,0.0387431441099995,0.0594312969552529,0.0355683024741367,0.0233116155234794
0.111443506857072,0.0432375172164163,0.0305979472262148,0.0216213949814981,0.0385908795027888,0.0594018236985682,0.0355006051585087,0.0232927349773882
0.111218494097093,0.0432394945017058,0.0305670416935784,0.0216154086816865,0.0384857120039935,0.0593815888381273,0.0354544812644338,0.0232793055895422
0.111069660582125,0.0432397691005024,0.0305472264200695,0.0216118420897735,0.0384169672486399,0.0593684413943533,0.035424722577421,0.0232702760369796
0.110977957091723,0.043239318188464,0.030535381020268,0.0216098627341176,0.0383750728133391,0.059360474616482,0.0354068113724542,0.0232646220424938
0.110926480604214,0.0432387261338821,0.0305289236022431,0.021608861503061,0.0383517948249493,0.0593560700649518,0.035396976163008,0.0232613975338868
0.110901063709096,0.0432382709999204,0.0305258238630751,0.021608415512178,0.0383404098413249,0.0593539242113248,0.0353922191414714,0.0232597804113011
0.110890668238903,0.0432380202305935,0.0305245897917516,0.0216082506017361,0.0383357943581183,0.0593530563602045,0.0353903105639584,0.0232591088096223
0.110887529339641,0.0432379256972333,0.0305242265211903,0.0216082054156191,0.0383344120572504,0.0593527966064617,0.0353897443817191,0.0232589029586308
