APL,FCR,FDS,FDP,ED,EI,ECU,ECR
0.0266167495046374,0.02941035154452,0.169828766547918,0.106913054411093,0.0874932458546963,0.103324541182735,0.119934395570278,0.0612363016092499
0.0293328415802496,0.0332887055493999,0.179389137242655,0.110588172775309,0.103552903129819,0.125125341673361,0.128637635864716,0.0760667896602572
0.0319283729910208,0.0371520330145869,0.188210258135316,0.113983716858655,0.119537794530674,0.146263546493366,0.137077123408196,0.0899898744520213
0.0343819334069201,0.040972861143376,0.196210881826053,0.117070887811711,0.135315766236493,0.166592718253074,0.145169141563628,0.102887158840484
0.0366738994993846,0.0447242062861935,0.203321030472528,0.119825343100978,0.15075362769437,0.18597742723573,0.152831994016149,0.114654189386885
0.038786748094727,0.0483800290310737,0.209483324994216,0.12222764369651,0.165718971714464,0.204295005773201,0.159987276731933,0.125202271880011
0.0407053121375588,0.0519156766903947,0.214653989065518,0.12426356387628,0.180081993861427,0.221436876942283,0.166561109630012,0.134459880772883
0.0424169740795925,0.0553083031788928,0.218803500566092,0.125924256622841,0.193717279960524,0.23730945997087,0.1724853097374,0.142373636934618
0.0439117961851678,0.0585372577138,0.221916889883077,0.12720628048852,0.206505536926104,0.251834692510591,0.177698496449227,0.148908856676479
0.045182590852662,0.0615844352078471,0.223993704744678,0.128111503240811,0.218335246830926,0.26495022951055,0.182147125808085,0.154049693904488
0.0462249355342487,0.0644345825004387,0.225047669633302,0.128646901463965,0.229104224702314,0.276609380074022,0.185786452955447,0.157798903806475
0.0470371362802496,0.0670755554173024,0.225106065458143,0.128824273521026,0.238721055665599,0.286780838505098,0.188581419883723,0.160177255710639
0.0476201429326648,0.0694985215693533,0.224208852145489,0.128659878404806,0.247106380338383,0.295448261532707,0.190507459774535,0.161222623959782
0.0479774191456652,0.0716981023186136,0.222407560614954,0.128174008999751,0.254193995718397,0.302609737361841,0.191551200756825,0.160988791546305
0.0481147717831004,0.0736724452471794,0.21976398956352,0.127390507041728,0.259931744893188,0.308277181006683,0.191711044106937,0.159544008948003
0.0480401461479844,0.0754232180331583,0.216348751975696,0.126336228435335,0.264282180625706,0.312475677842494,0.190997588449808,0.156969357064638
0.0477633951585821,0.0769555171400643,0.21223972241274,0.1250404706525,0.267223000488425,0.31524278564093,0.189433873933095,0.153356966643701
0.0472960312938621,0.078277689682051,0.207520436401139,0.123534377095608,0.268747258693449,0.316627792421186,0.187055427979359,0.148808146570328
0.0466509694360158,0.0794010726564395,0.202278487195379,0.121850334449048,0.268863358011528,0.316690915827838,0.183910104415212,0.143431470123357
0.0458422670023805,0.080339658243179,0.196603956262324,0.12002137671029,0.267594819023018,0.315502426319944,0.180057716256741,0.13734086234208
0.0448848662962332,0.081109695167089,0.190587907281308,0.118080605559258,0.264979824330784,0.313141683024648,0.175569464887098,0.130653723947062
0.0437943435540656,0.0817292348805638,0.184320970500286,0.116060634788461,0.261070545083219,0.309696083567518,0.170527165155754,0.123489119617482
0.0425866693496417,0.0822176312407674,0.177892042775842,0.113993067077496,0.255932270970488,0.305259940549348,0.165022265003848,0.115966052486867
0.0412779851133532,0.0825950051977614,0.171387125858426,0.111908011770926,0.249642375875206,0.29993330049916,0.15915466500309,0.108201842781002
0.0398843999081529,0.0828816902297686,0.164888319611645,0.10983365013609,0.242289154112569,0.293820714609827,0.153031354908923,0.100310626135776
0.0384218100826906,0.0830976774797419,0.158472978784631,0.107795850962003,0.233970556156495,0.287029964136915,0.146764895082832,0.092401985615391
0.0369057427097583,0.0832620799868476,0.152213035097341,0.10581783778474,0.224792845382494,0.279670746592506,0.140471775366195,0.0845797300881164
0.0353512226963701,0.08339263311096,0.146174481725471,0.103919909855845,0.214869195786306,0.271853340109555,0.134270682038295,0.0769408298118256
0.0337726631094457,0.0835052455241487,0.140417012589101,0.102119219653828,0.204318253996812,0.263687275762794,0.128280700791283,0.0695745174228299
0.032183778034041,0.0836136134414091,0.134993802767642,0.100429608013683,0.193262693040757,0.255280055064965,0.122619484905864,0.0625615588423968
0.0305975165851347,0.0837289090969092,0.12995141142315,0.0988614947694436,0.181827786688502,0.246735949073886,0.117401420961582,0.0559736943566422
0.029026015458704,0.0838595516107333,0.125329787617993,0.0974218216355884,0.170140029832738,0.238154906838853,0.112735825415217,0.0498732462925188
0.0274805664768854,0.0840110648312675,0.121162361150715,0.0961140458271091,0.158325822612675,0.229631587805137,0.108725202607895,0.0443128866608917
0.0259715956467949,0.0841860240384285,0.117476201554,0.0949381857831195,0.146510227518187,0.221254519895991,0.105463591097678,0.0393355554491781
0.024508651044968,0.0843840917218362,0.114292226350327,0.0938909219744295,0.134815803168204,0.213105374765334,0.103035023725578,0.0349745176317291
0.023100397626927,0.0846021410182009,0.111625437171113,0.0929657545861481,0.123361516249944,0.205258345313913,0.101512126411167,0.0312535446143446
0.0217546171622401,0.0848344628477452,0.109485164331586,0.0921532167903965,0.112261733010602,0.19777960916603,0.100954878838526,0.0281872042689506
0.0204782109414558,0.0850730490423163,0.10787530727828,0.0914411404036453,0.101625292280741,0.190726865650847,0.101409556434139,0.0257812434328619
0.0192772026926167,0.0853079397311749,0.106794566702058,0.0908149709222431,0.0915546617820806,0.18414894116574,0.102907869654615,0.0240330477916389
0.018156739887889,0.085527620322201,0.106236670119966,0.0902581295340036,0.0821451771660078,0.178085464901668,0.105466315042413,0.0229321658859894
0.0171210929346347,0.0857194521621284,0.106190593846016,0.089752418631063,0.0734843593179298,0.172566619424169,0.109085751687561,0.0224608856189453
0.0161736529523662,0.0858701213798838,0.10664078213114,0.0892784643744086,0.0656513029660207,0.167612967273736,0.11375121499956,0.0225948522524079
0.0153169293938442,0.0859660921812971,0.107567363718409,0.088816187219049,0.0587161304443495,0.163235351589186,0.119431976064694,0.0233037167795408
0.0145525485615844,0.0859940531876026,0.108946368774305,0.0883452898791052,0.0527395076368619,0.159434871946071,0.126081849414324,0.0245518041690684
0.0138812536714132,0.0859413470286877,0.110749953310742,0.0878457503399802,0.047772222784135,0.156202944712484,0.133639745770481,0.0262987928426925
0.0133029071369591,0.0857963729460822,0.112946641761959,0.0872983049148898,0.0438548313050032,0.153521465126582,0.142030460640168,0.0285003991724615
0.012816496152409,0.085548949916905,0.115501600062464,0.0866849056856551,0.0410173701260077,0.151363091493229,0.151165685458484,0.0311090627526652
0.0124201431128456,0.0851906269244766,0.118376950970264,0.0859891391180055,0.0392791436809509,0.149691668929808,0.16094522517836,0.0340746289152657
0.012111122679912,0.0847149297546697,0.121532140744491,0.0851965959003788,0.0386485826082458,0.148462804077736,0.171258403341488,0.037345024607805
0.0118858872539518,0.0841175392916404,0.124924362165211,0.0842951830511556,0.0391231762628076,0.147624596784879,0.181985630932239,0.0408669235836048
0.011740102245753,0.0833964024819021,0.128509033672308,0.0832753683994891,0.0406894809197835,0.147118529384143,0.193000109429291,0.0445863973487889
0.0116686919593509,0.0825517815304522,0.132240328267639,0.0821303489419359,0.0433232061707548,0.14688050743461,0.204169635203624,0.0484495486989069
0.0116658963109145,0.0815862478285796,0.136071739540737,0.0808561398379293,0.0469893820713393,0.146842038807552,0.215358473700923,0.0524031241057146
0.011725338164091,0.0805046250684715,0.139956667428926,0.0794515872869421,0.0516426091321585,0.146931531881589,0.226429276443377,0.056395100048324
0.0118401007720615,0.0793138839941617,0.143849004444685,0.0779183128839167,0.0572273926449523,0.147075687279514,0.237245019200842,0.0603752379786918
0.0120028146367356,0.078022991287004,0.147703704521977,0.0762605974940769,0.0636785625898527,0.147200951164885,0.247670942867844,0.0642956032263343
0.0122057529392884,0.0766427167256117,0.151477320782425,0.07448521069063,0.0709217807566534,0.147234994427868,0.257576477159355,0.0681110437106901
0.0124409344355032,0.075185404979906,0.155128503626395,0.0726011907823747,0.0788741375717281,0.147108182714048,0.266837120179719,0.0717796236079804
0.0127002322690754,0.0736647204343178,0.158618453853706,0.0706195815506123,0.0874448418010184,0.146755006176237,0.275336237629961,0.0752630055346884
0.0129754867059142,0.0720953746983388,0.161911324489846,0.0685531340509256,0.0965360058464349,0.146115442598715,0.282966740371869,0.0785267746217157
0.0132586196023898,0.0704928463958446,0.164974560917845,0.0664159840464433,0.106043527105071,0.145136230018846,0.289632601251724,0.0815406999620148
0.0135417485047597,0.0688731010257099,0.167779167588368,0.0642233169145781,0.115858062597674,0.143772023110776,0.295250180638477,0.0842789320134683
0.0138172984145682,0.067252315786673,0.170299893962607,0.0619910316549345,0.125866091562533,0.141986404451502,0.299749342134057,0.086720136430526
0.0140781091583664,0.06564661210227,0.172515340306893,0.0597354137917311,0.135951059565124,0.139752723519923,0.303074350869987,0.0888475640590671
0.0143175359646166,0.0640717980788951,0.1744079913698,0.0574728239853566,0.145994597384531,0.137054744219642,0.305184551433261,0.0906490552520273
0.014529540755004,0.0625431237581686,0.175964188748918,0.055219406253285,0.155877807707026,0.133887092536896,0.30605481773959,0.0921169775165526
0.0147087721134155,0.0610750529714922,0.177174049589189,0.0529908179140121,0.165482611738223,0.130255504981875,0.305675759026609,0.0932480989861954
0.0148506326987734,0.059681056293915,0.178031334790004,0.0508019829787906,0.174693145810508,0.126176881870336,0.304053665798328,0.0940434041539843
0.0149513335889522,0.0583734297018279,0.178533269685029,0.0486668714687044,0.183397194986407,0.121679147600188,0.301210189994019,0.0945078603121807
0.0150079352889314,0.0571631427963918,0.178680324001595,0.0465983083598844,0.191487646917228,0.116800918905778,0.297181770215209,0.0946501419517643
0.0150183748548719,0.0560597186255559,0.178475962404285,0.0446078166402409,0.198863944827103,0.111590985828592,0.292018828625942,0.0944823175316884
0.014981478286112,0.0550711447073587,0.177926378482023,0.042705498544204,0.205433512587339,0.106107617220918,0.285784774468981,0.0940195018441337
0.014896957490122,0.0542038132782327,0.177040221586952,0.0408999573310966,0.211113117136912,0.100417709534944,0.278554846430412,0.0932794786866376
0.0147653916949981,0.0534624888236729,0.175828320053014,0.0391982597703498,0.215830127513188,0.094595801503381,0.27041481734042,0.0922823014569893
0.0145881939267362,0.0528503021269916,0.174303401704881,0.0376059374946588,0.219523630097986,0.0887229767542838,0.261459580646299,0.0910498817746207
0.0143675638344301,0.0523687714667445,0.172479814755795,0.0361270235306496,0.22214536710451,0.0828856732739169,0.251791641833501,0.0896055765817302
0.0141064285160507,0.0520178523553133,0.170373256375435,0.0347641185420713,0.223660476841987,0.0771744167946273,0.241519545404425,0.0879737818457903
0.0138083729175054,0.0517960168629092,0.168000518464862,0.0335184799351795,0.224048024612,0.0716824957386935,0.230756274357237,0.0861795380547056
0.0134775609239695,0.0517003620572445,0.165379257677499,0.0323901264503532,0.223301316672188,0.0665045968365157,0.219617660911704,0.0842481516997875
0.0131186478740561,0.0517267446806394,0.162527791043437,0.0313779514400552,0.221427986017826,0.0617354214858565,0.208220842815645,0.0822048378134057
0.01273668526564,0.0518699365430712,0.159464915040484,0.0304798394454278,0.218449836567592,0.05746830265141,0.196682790236127,0.0800743899749411
0.0123370188628583,0.0521237930956766,0.156209746625262,0.0296927821565128,0.214402439118597,0.0537938406959623,0.18511891932515,0.0778808848185298
0.0119251820452068,0.0524814268194474,0.15278158765242,0.029012990447168,0.209334486155681,0.0507985744341435,0.173641804178329,0.075647427295725
0.0115067867897711,0.0529353776173858,0.14919981678758,0.0284359987597196,0.203306927062262,0.0485637012712165,0.162359998482176,0.0733959405720479
0.011087414885744,0.0534777741642587,0.145483813601014,0.0279567579643921,0.196391914314226,0.0471638576291084,0.151376979061582,0.0711470008558421
0.0106725117620039,0.0541004825112808,0.141652916899347,0.0275697139902187,0.18867159138076,0.0466659683331349,0.14079022298746,0.0689197140079446
0.0102672849681815,0.0547952401544365,0.137726413695044,0.027268871666027,0.180236747807597,0.0471281722374149,0.130690425943934,0.0667316288136539
0.0098766092440839,0.0555537742114103,0.133723549405476,0.0270478454022014,0.171185364799764,0.0485988317615671,0.121160863331747,0.0645986816182983
0.00950494018151525,0.0563679011272287,0.129663547399748,0.0268998997176177,0.161621078140233,0.0511156359657392,0.11227689104401,0.0625351682086331
0.00915623846691014,0.0572296040557388,0.125565627528966,0.0268179827190431,0.151651590993907,0.0547048094401945,0.104105581238034,0.0605537405071808
0.00883390643271838,0.0581310844352007,0.121449017391481,0.0267947550006627,0.141387073028582,0.0593804414865783,0.0967054875295167,0.058665426748901
0.00854073821888963,0.0590647862976555,0.117332954683509,0.0268226161892064,0.130938581815154,0.0651439508368255,0.0901265314786204,0.056879673374236
0.00827888443343777,0.060023394692414,0.113236681897752,0.026893731781205,0.120416537512785,0.071983700068161,0.0844099982552334,0.055204404973335
0.00804983180343322,0.0609998122912374,0.109179434242116,0.027000063488804,0.109929275378673,0.0798747714244559,0.0795886267952873,0.0536460970511071
0.00785439788549229,0.0619871198285599,0.105180418041575,0.0271334065354144,0.0995816958921208,0.0887789129903686,0.0756867794833371,0.0522098566497894
0.00769274054985675,0.0629785257814845,0.101258773154673,0.0272854370315743,0.0894740293733934,0.0986446614473609,0.0727206764671453,0.0508995076932834
0.0075643817113759,0.0639673088589104,0.0974335123627233,0.0274477718311842,0.0797007296645166,0.109407644754336,0.0706986782649496,0.0497176802143218
0.00746824459066812,0.0649467552697603,0.0937234335560045,0.0276120423784414,0.0703495088576097,0.120991065001285,0.0696215985201986,0.0486659042068614
0.00740270358737535,0.0659100928076833,0.0901470053508254,0.0277699831597131,0.0615005219210623,0.133306358654613,0.0694830295622984,0.0477447088423222
0.00736564561829392,0.0668504252731446,0.0867222314293172,0.0279135343714534,0.0532257064605439,0.146254028861857,0.0702696671571392,0.0469537262992128
0.00735454152586741,0.0677606726612176,0.0834665012443469,0.0280349572867816,0.0455882789594919,0.15972464272043,0.0719616253473975,0.0462917979221361
0.00736652589373689,0.0686335237809212,0.080396433716852,0.0281269600975879,0.0386423849700577,0.173599985473556,0.074532735019099,0.045757079968449
0.00739848328861988,0.0694614076402498,0.0775277182012061,0.0281828321484644,0.0324328973839599,0.187754363170387,0.0779508197170767,0.0453471466285732
0.0074471386067406,0.0702364878202498,0.0748749564871428,0.0281965851074361,0.0269953544740004,0.202056044769095,0.0821779419274108,0.0450590887485527
0.00750914897449785,0.0709506813893861,0.0724515108904597,0.0281630999644717,0.0223560277793426,0.216368832974658,0.0871706160236854,0.0448896072984602
0.00758119464219607,0.0715957022594173,0.0702693643365357,0.0280782782861134,0.0185321088033429,0.230553748958159,0.0928799903331409,0.0448351008019006
0.00766006651021147,0.0721631284907413,0.068338997135249,0.0279391953223191,0.0155320025822217,0.244470808623227,0.0992520080602383,0.0448917453751511
0.0077427482633268,0.0726444933325783,0.0666692827802919,0.0277442521272667,0.0133557152678001,0.257980859298064,0.106227562383735,0.0450555645865392
0.0078264914407941,0.0730313999996764,0.0652674036854421,0.0274933235967292,0.0119953219441222,0.2709474399639,0.11374266276101,0.0453224847967889
0.00790888198650318,0.0733156595873674,0.0641387871010991,0.0271878986713134,0.0114355001406751,0.283238627514968,0.121728627590772,0.0456883713538825
0.00798789679000755,0.073489449529979,0.0632870600181548,0.0268312083098704,0.0116541141598573,0.294728835614143,0.130112316506421,0.0461490424645526
0.00806194857790313,0.0735454870948234,0.0627140199764822,0.0264283370052328,0.0126228355691313,0.305300539584218,0.138816416229656,0.0467002601315986
0.00812991761694233,0.0734772103861114,0.0624196184982147,0.0259863143359799,0.0143077859746665,0.314845907594389,0.147759796214664,0.0473376999698598
0.0081911692030518,0.0732789592794891,0.0624019558484711,0.0255141833799468,0.0166701891897269,0.323268321725597,0.156857952210379,0.0480569026396546
0.00824555669100214,0.0729461501712991,0.0626572884034261,0.0250230423794088,0.0196670206496048,0.330483769050912,0.166023555618079,0.0488532090478827
0.00829341059512385,0.0724754402322786,0.063180051093239,0.0245260557151776,0.0232516420923867,0.336422072617231,0.175167123261331,0.0497216814536037
0.00833551477396866,0.0718648775925756,0.0639628964348444,0.0240384307300897,0.0273744096693155,0.341027922783332,0.184197816125244,0.0506570144609492
0.0083730707722854,0.0711140326225475,0.0649967503975002,0.0235773579098884,0.0319832447868338,0.344261669369753,0.193024367807928,0.0516534425684946
0.00840765132074191,0.0702241033352279,0.0662708856456406,0.0231619128837054,0.0370241594761048,0.346099845695657,0.201556135181711,0.0527046526874014
0.00844114420569698,0.0691979875241874,0.067773013838185,0.0228129194880074,0.0424417316637075,0.346535412785951,0.209704256036721,0.0538037097676808
0.00847568822643786,0.068040316360492,0.069489398754619,0.0225527738461821,0.0481795297246473,0.345577729405362,0.21738289123614,0.0549430022708227
0.00851360350661934,0.06675744768066,0.071404990325801,0.0224052301113193,0.0541804891596572,0.343252264038121,0.224510520954863,0.0561142132698122
0.00855731878080942,0.0653574204313595,0.0735035776231325,0.0223951489772628,0.0603872460398613,0.339600063494411,0.231011255506389,0.0573083221769867
0.00860929830554166,0.0638498731400402,0.0757679574468157,0.0225482099292456,0.0667424316722501,0.334676983322804,0.236816114696782,0.0585156404765545
0.00867197077148071,0.0622459282717587,0.078180113321001,0.0228905878200276,0.0731889325539601,0.328552680915613,0.241864229986735,0.0597258826487672
0.00874766219654555,0.0605580426004142,0.0807213976642228,0.0234485947786981,0.0796701211921633,0.32130937978464,0.246103931254564,0.0609282717285179
0.00883853440498526,0.0587998236951997,0.0833727098246757,0.0242482900636177,0.0861300666695984,0.313040428871593,0.249493690855995,0.0621116774561606
0.00894653034307984,0.0569858145702539,0.0861146649410201,0.0253150628027426,0.0925137374642395,0.303848696452055,0.252002905787052,0.0632647829143556
0.00907332712403721,0.0551312513404344,0.0889277511278609,0.0266731949361677,0.0987672113514027,0.293844847151844,0.25361249879941,0.0643762731576708
0.00922029735148534,0.0532518011410196,0.0917924728315894,0.0283454134501173,0.104837907163876,0.283145548636613,0.254315314164737,0.065435037998941
0.00938847898811042,0.0513632886372628,0.0946894765858836,0.030352441751585,0.110674850664289,0.271871644508898,0.254116284316907,0.0664303813550683
0.0095785538516999,0.0494814187030493,0.097599655332122,0.0327125597108506,0.11622898253574,0.260146321729258,0.253032354315414,0.0673522307517835
0.00979083473741171,0.0476215010021074,0.100504230576349,0.0354411807788283,0.121453511494957,0.248093299596618,0.25109216759234,0.0681913416141998
0.0100252611369446,0.0457981810545322,0.103384816249579,0.0385504531160121,0.126304310254057,0.235835070299045,0.248335531797477,0.0689394906461378
0.0102814034720863,0.0440251826733823,0.106223471697577,0.0420488901370963,0.13074034635821,0.22349122398835,0.244812691389685,0.0695896507288889
0.0105584755939435,0.0423150676866297,0.109002751769865,0.0459410342622838,0.134724134377152,0.211176890930305,0.24058343128117,0.0701361382666069
0.0108553549606534,0.0406790194416705,0.11170575924516,0.0502271562000931,0.138222192518573,0.199001327728159,0.235716029172662,0.0705747247266681
0.0111706094583184,0.0391266559031137,0.114316201344843,0.0549029916364833,0.141205486852722,0.187066665055122,0.230286072864793,0.0709027071550575
0.0115025294884,0.0376658766417202,0.116818450521804,0.0599595183315959,0.143649849667896,0.175466825701961,0.224375164636456,0.0711189363232695
0.0118491638697082,0.0363027467987877,0.119197610232517,0.0653827789219946,0.145536363222209,0.164286617520199,0.218069543769249,0.0712238040907204
0.0122083582999848,0.0350414201340473,0.121439588019302,0.0711537570213432,0.146851703550354,0.153601004990612,0.211458665926086,0.0712191920342596
0.0125777954819569,0.0338841019522717,0.123531179860416,0.0772483151302752,0.147588438424024,0.143474562872988,0.204633780848485,0.0711083819342243
0.0129550363304139,0.0328310515749584,0.125460170290307,0.0836372016598105,0.147745269677646,0.133961113002072,0.197686546027906,0.070895928363832
0.0133375616927617,0.0318806237741963,0.127215451196963,0.0902861319545318,0.147327208061831,0.125103539884879,0.190707705568285,0.0705874960361316
0.0137228137211468,0.0310293487689153,0.128787158036024,0.0971559464261446,0.146345671790946,0.116933775259298,0.183785855875535,0.0701896685380682
0.0141082358525327,0.0302720501015151,0.130166817182402,0.104202848371571,0.144818506320726,0.109472939718802,0.177006316007908,0.0697097385011203
0.0144913105954052,0.0296019987299102,0.131347495314655,0.111378724187725,0.14276992893784,0.102731630546084,0.170450119263539,0.0691554903178802
0.0148695948213383,0.0290111007962159,0.132323942237328,0.118631548503365,0.14023040387385,0.0967103464215435,0.164193141733359,0.0685349850227467
0.0152407526337468,0.0284901162608399,0.13309272159137,0.125905874990411,0.137236450869947,0.0914000391246762,0.158305381528172,0.0678563551257304
0.015602585819937,0.0280289054175581,0.133652327745399,0.133143409812378,0.133830386591587,0.086782779310029,0.152850398558643,0.0671276167816918
0.0159530615240453,0.0276166996104232,0.134003289649021,0.14028366073576,0.13005999847068,0.0828325209059073,0.147884919415538,0.0663565070034287
0.0162903366569988,0.0272423912769559,0.134148261649433,0.147264653269003,0.125978153572379,0.0795159489059876,0.143458605913044,0.0655503532175064
0.0166127788608017,0.0268948372258773,0.134092097079527,0.15402370566468,0.121642347369532,0.0767933970021119,0.139613979865846,0.0647159804965854
0.0169189842492746,0.0265631679002308,0.133841896043606,0.160498255173485,0.11711419603908,0.0746198221161647,0.136386490542339,0.0638596589984382
0.0172077922322086,0.0262370945478363,0.133407017659566,0.166626726035054,0.112458872393968,0.0729458212704823,0.133804704437748,0.0629870918025359
0.0174782973543159,0.0259072064511679,0.132799049337537,0.172349424774063,0.107744484538706,0.0717186743865381,0.131890590586104,0.0621034413326664
0.0177298577026432,0.0255652517082909,0.132031730086561,0.177609444074288,0.103041399046268,0.0708833967576678,0.130659871286679,0.0612133900747397
0.0179620995301961,0.0252043967047702,0.131120829495426,0.182353556199145,0.0984215141495705,0.070383786168431,0.130122409156176,0.0603212287446981
0.0181749182177467,0.0248194603278466,0.130083986924617,0.186533080036485,0.0939574898168709,0.0701634496713705,0.130282606110575,0.0594309637830379
0.0183684761829737,0.0244071188536072,0.128940514837957,0.190104709860773,0.0897219396904102,0.0701667935222184,0.131139796300763,0.0585464363295581
0.0185431984824988,0.0239660774211598,0.127711166227377,0.193031296015599,0.085786588183718,0.0703399593575094,0.132688620470059,0.0576714457751444
0.0186997664612582,0.0234972050452782,0.126417862383602,0.195282565590621,0.0822213978878685,0.0706316919513731,0.134919370910291,0.0568098713241058
0.0188391091823608,0.0230036318477485,0.125083377262027,0.196835764834822,0.0790936769970996,0.0709941273549638,0.137818293774925,0.0559657838929844
0.0189623920772762,0.0224908088451594,0.123730978329553,0.197676199166449,0.0764671811852558,0.0713834924021445,0.141367833606965,0.0551435391697476
0.0190710024459978,0.0219665316987177,0.122384029332531,0.197797646125854,0.0744012270729402,0.0717607061988517,0.145546808175725,0.0543478429756478
0.0191665319152094,0.0214409301802946,0.121065565799852,0.197202622058795,0.0729498340530965,0.0720918735985182,0.150330509691051,0.0535837827623873
0.0192507564603673,0.0209264249295399,0.11979785713541,0.19590249249663,0.0721609087101554,0.0723486629099242,0.155690738059856,0.0528568230562306
0.0193256148575149,0.0204376526775042,0.118601968298018,0.193917425378909,0.0720754839657552,0.0725085648238096,0.161595779363765,0.0521727663028402
0.0193931862473399,0.0199913606779144,0.117497330589368,0.191276191018604,0.0727270246563598,0.0725550341840504,0.16801034500885,0.0515376823335672
0.0194556668614662,0.0196062705533008,0.116501329426331,0.18801581061392,0.0741408118699233,0.0724775182075334,0.174895483945901,0.0509578092125291
0.019515345312956,0.0193029110509233,0.115628919277994,0.184181050810803,0.0763334191204761,0.0722713740320798,0.182208477268335,0.050439427556589
0.0195745756965678,0.0191034187863534,0.114892280456085,0.179823763241332,0.079312293665275,0.0719376784676039,0.189902726020358,0.0499887116279716
0.019635748146861,0.0190313065836978,0.114300536325669,0.175002076221514,0.0830754556134882,0.0714829355611911,0.197927648243685,0.0496115632497931
0.0197012572206807,0.0191112005035598,0.113859550522132,0.169779456705246,0.0876113258018887,0.0709186915346581,0.206228606527824,0.0493134373784147
0.0197734691243748,0.0193685485401411,0.113571821121801,0.164223669234489,0.0928986906801026,0.0702610693480268,0.214746888786828,0.0490991695815838
0.0198546889892183,0.019829305584513,0.113436483403334,0.158405661316988,0.0989068086714886,0.0695302350617244,0.223419760705786,0.0489728150924475
0.0199471289767661,0.0205196001020768,0.113449426792455,0.152398401032272,0.105595658113468,0.068749806326566,0.232180601487749,0.0489375073324532
0.0200528774850796,0.0214653879444442,0.113603525615261,0.146275687675466,0.11291632298925,0.067946212554463,0.240959130840363,0.0489953421848088
0.0201738697180158,0.0226920980326179,0.113888977253573,0.140110955023931,0.120811510005191,0.0671480175441789,0.249681735414124,0.0491472929029366
0.0203118603044029,0.024224273658928,0.114293735526798,0.133976089113876,0.129216189212642,0.0663852174301551,0.258271904093679,0.049393158686195
0.0204683990968368,0.0260852120810276,0.114804022546748,0.127940285496722,0.138058349763434,0.0656885282913928,0.266650779895769,0.0497315478077786
0.0206448113475429,0.0282966039808702,0.115404899848817,0.122068972351934,0.147259861297873,0.0650886774292508,0.274737829277962,0.0501598944850293
0.0208421829649431,0.0308781735167478,0.116080879606758,0.116422824156809,0.156737428365887,0.0646157103372191,0.282451619728847,0.0506745073091757
0.021061350771854,0.0338473196737221,0.116816558557884,0.111056885840604,0.166403620354468,0.0642983237461956,0.289710689859407,0.051270645320814
0.0213028971648175,0.0372187607013978,0.117597259460314,0.10601982122186,0.17616795588995,0.0641632351158788,0.296434495366798,0.0519426161046008
0.021567148497225,0.0410041853054949,0.118409665684878,0.101353294324768,0.185938020961932,0.0642345996890938,0.302544417019527,0.0526838898560267
0.02185417669223,0.0452119160378832,0.119242432506385,0.0970914885124235,0.195620603061619,0.064533486164275,0.307964819186563,0.0534872244860974
0.0221638037268819,0.0498465909391122,0.12008675446943,0.0932607657973301,0.20512282642121,0.065077420345645,0.312624144989445,0.0543447986033322
0.0224956083865825,0.0549088688931917,0.120936865244195,0.0898794667606546,0.21435327247991,0.0658800038249666,0.316456025057156,0.0552483504984178
0.0228489340069535,0.0603951639224587,0.121790447047691,0.086957849984345,0.223223064469339,0.0669506131921303,0.319400366887612,0.0561893211480784
0.0232228953515139,0.066297414579153,0.122648930850948,0.0844981685521671,0.231646891266625,0.0682941840051747,0.321404389379196,0.057158997628306
0.0236163828819832,0.0726028956410254,0.123517674973924,0.0824948795963923,0.239543948762937,0.0699110816654912,0.322423573514799,0.0581486514116876
0.0240280634027645,0.0792940790126411,0.12440601640722,0.0809349804114186,0.246838785988529,0.0717970586343782,0.32242251126779,0.0591496652423486
0.0244563769494312,0.0863485489877971,0.125327193860805,0.0797984611950025,0.253462053312867,0.0739432954507684,0.321375644257067,0.0601536429207713
0.0248995302632987,0.0937389757179756,0.126298141974707,0.0790588616330821,0.259351155177175,0.0763365222069002,0.319267885170071,0.0611524980755221
0.0253554869082488,0.101433150830001,0.127339153753679,0.0786839181170987,0.264450806730123,0.0789592169464276,0.316095107398767,0.0621385203316121
0.0258219535941875,0.109394089522705,0.128473408856074,0.0786362902464449,0.268713488222111,0.0817898771787387,0.311864481591024,0.0631044194080606
0.0262963625307532,0.117580202371811,0.129726371681698,0.0788743579446608,0.272099792280331,0.0848033597251293,0.306594641537737,0.0640433485354718
0.0267758507262353,0.125945536972309,0.131125072945379,0.0793530822200658,0.274578667726897,0.0879712818661463,0.300315674403734,0.0649489075954048
0.0272572384541145,0.134440086735951,0.1326972975259,0.0800249220624734,0.276127573931689,0.0912624736088835,0.29306894467857,0.0658151250579945
0.0277370099157768,0.143010163857104,0.13447070624068,0.080840797132068,0.276732566119352,0.094643468876852,0.284906770334662,0.0666364185258854
0.0282112989766008,0.151598835167093,0.136471918325816,0.0817510820734999,0.276388330929831,0.0980790241702482,0.27589196902584,0.0674075366443792
0.0286758820140168,0.160146421276267,0.138725577509596,0.0827066146778223,0.275098182610859,0.101532656527717,0.266097282960351,0.0681234887010517
0.0291261792784902,0.168591058702769,0.141253422553936,0.083659696870038,0.272874018245037,0.104967196937976,0.255604682053783,0.0687794705465172
0.0295572661058544,0.176869320417165,0.144073384425856,0.0845650648301044,0.269736221784532,0.108345358589414,0.244504543049211,0.0693707953202875
0.0299638955570738,0.184916884800865,0.147198735373835,0.0853808032664523,0.26571350370868,0.111630319601927,0.232894706940506,0.0698928352568936
0.030340534244545,0.192669240478464,0.150637318207499,0.086069179874658,0.26084266537636,0.114786316914901,0.2208794249134,0.0703409785371649
0.0306814130004053,0.200062415788234,0.154390885260815,0.0865973795519986,0.255168283042746,0.117779244269119,0.208568210577918,0.07071060389962
0.0309805935467301,0.207033725179226,0.158454574523034,0.0869381228803106,0.248742313119008,0.120577244861681,0.196074620190259,0.0709970752499316
0.0312320514092122,0.213522528000378,0.162816544972479,0.087070157329588,0.241623623472953,0.123151287874653,0.183514980420188,0.0711957583204033
0.0314297739860493,0.219470995062785,0.167457786160799,0.0869786104114278,0.233877452003907,0.125475716705783,0.171007076256602,0.071302061241061
0.0315678711601647,0.224824873233164,0.17235211107978,0.0866551933866697,0.225574786122645,0.127528755155682,0.158668806544383,0.0713115004089325
0.0316406946309118,0.229534231097501,0.177466336497297,0.0860982469724521,0.216791654083738,0.129292956682766,0.146616816033233,0.0712197918584093
0.0316429616050428,0.233554165595913,0.182760650181066,0.0853126279422082,0.207608325069953,0.13075558205168,0.134965119092448,0.0710229660146262
0.0315698786632388,0.236845452480612,0.188189159084834,0.0843094445776497,0.198108425911214,0.131908892647055,0.12382373736348,0.0707175007437786
0.0314172623013403,0.239375130176187,0.193700606958802,0.0831056556426011,0.188377992737264,0.132750349498106,0.113297377787599,0.0703004656724989
0.0311816534121377,0.241117013326706,0.19923924494038,0.0817235494523764,0.178504480931907,0.13328270939614,0.103484176608532,0.0697696707614704
0.0308604232687963,0.242052135025529,0.204745835255349,0.0801901187542193,0.168575754367781,0.133514007530622,0.0944745304262225,0.069123813579353
0.0304518680144454,0.242169112792015,0.210158765753716,0.0785363480320035,0.158679068214564,0.133457413582801,0.0863500310642411,0.0683626213841424
0.0299552877538382,0.241464425187902,0.215415249548696,0.0767964330519487,0.148900055056791,0.133130950814853,0.0791825184550084,0.0674869845092818
0.0293710462188113,0.239942581244961,0.220452577577109,0.0750069554866167,0.139321723777928,0.132557076444016,0.0730332637704704,0.0664990760567036
0.0287006079995032,0.237616167745136,0.225209385209357,0.0732060361881681,0.130023482863693,0.131762133113371,0.0679522926883715,0.0654024513022683
0.0279465520341696,0.234505768134779,0.229626893035011,0.0714324886862207,0.121080202457797,0.130775690834194,0.0639778559515647,0.0642021207989591
0.0271125617052642,0.230639757379149,0.233650088077118,0.0697249913136751,0.112561331377919,0.129629802544251,0.0611360515786034,0.0629045937728646
0.0262033927751257,0.226053984543188,0.237228821530195,0.0681212937535356,0.104530085639029,0.128358194542594,0.0594406003884059,0.0615178913538359
0.0252248201791187,0.220791355231179,0.24031880713388,0.0666574717993371,0.0970427234368924,0.126995411025701,0.058892773804796,0.0600515306371841
0.0241835641037685,0.214901319890987,0.242882505322478,0.0653672421609837,0.090147917872703,0.125575933684788,0.0594814700862404,0.0585164797572873
0.0230871959795576,0.208439269252507,0.244889872844656,0.0642813469907416,0.0838862337241752,0.124133301379869,0.0611834323396125,0.0569250827667452
0.0219440261415107,0.20146584046654,0.246318954457517,0.0634270154503804,0.0782897104650208,0.122699258292084,0.063963599430321,0.0552909535122248
0.0207629763204619,0.194046144963953,0.247156298603624,0.0628275069803758,0.0733815519868967,0.121302959395724,0.0677755797844435,0.053628839899387
0.019553441137638,0.186248937286518,0.247397190414606,0.0625017379134751,0.0691759238127659,0.119970258823747,0.0725622383110802,0.0519544625462714
0.0183251429502259,0.178145749431256,0.247045707687194,0.0624639905585615,0.065677860035824,0.118723101423116,0.0782563877712107,0.0502843334506354
0.0170879838233099,0.169810015421643,0.246114613471295,0.0627237029827954,0.0628832837083728,0.117579033229104,0.0847815767205915,0.0486355601116734
0.0158518977628774,0.161316205590088,0.244625098928493,0.0632853383596562,0.0607791450196871,0.11655084317116,0.09205296535386,0.0470256388743692
0.0146267061008881,0.152738982022766,0.242606383145215,0.0641483338441474,0.0593436807355598,0.115646344951599,0.0999782782474194,0.0454722397386536
0.0134219789162689,0.144152380189577,0.240095170603986,0.0653071291459905,0.0585467960145436,0.114868303790936,0.108458821347028,0.043992984606838
0.0122469053008842,0.13562901885445,0.237134968432112,0.06675127350525,0.0583505668145399,0.114214507269228,0.117390551157163,0.0426052216968306
0.0111101749698985,0.127239340372412,0.233775273445578,0.0684656073981207,0.0587098586566594,0.113677973480357,0.126665186700399,0.0413257999643455
0.0100198731795104,0.119050885404893,0.230070649270497,0.0704305137074701,0.0595730553449816,0.113247284750647,0.136171358461061,0.0401708482391133
0.00898339028203295,0.111127608823634,0.226079721966009,0.0726222327448414,0.0608828887095429,0.11290703223651,0.145795791991249,0.0391555639492491
0.00800734666652642,0.103529245873246,0.221864124857583,0.0750132358171229,0.0625773575867064,0.112638355686633,0.155424525722982,0.038294015595955
0.00709753337405436,0.0963107381829296,0.217487418303819,0.0775726523817983,0.0645907217462462,0.112419562603565,0.164944161395742,0.0375989616071097
0.00625886830462622,0.0895217270068585,0.213014001807591,0.0802667459298832,0.0668545543150078,0.112226810401277,0.174243140831953,0.0370816861890659
0.00549536756277059,0.0832061170741694,0.208508031055011,0.083059433540355,0.0692988337805769,0.112034832468588,0.183213036471733,0.0367518509596386
0.0048101311311227,0.077401711736828,0.204032353028544,0.0859128435021159,0.0718530540361036,0.111817685216356,0.191749838206244,0.036617360049179
0.00420534184639117,0.0721399202142921,0.199647476176401,0.0887879041010863,0.0744473295495627,0.111549491696517,0.199755216752071,0.0366842363141038
0.00368227661393979,0.0674455395741437,0.195410597043846,0.0916449540896882,0.077013473505691,0.11120515991597,0.207137743844759,0.0369565074021134
0.00324132883869716,0.0633366159846905,0.191374707359544,0.0944443623171449,0.0794860293846183,0.110761059339235,0.213814051425296,0.0374361023182141
0.00288204105152194,0.0598243904144879,0.187587804323504,0.0971471428630615,0.0818032398596653,0.110195644918129,0.219709914941257,0.0381227610752336
0.00260314661893457,0.0569133326969699,0.184092220900449,0.0997155538264722,0.083907939591165,0.109490021766426,0.224761248411166,0.03901396096881
0.00240261932777099,0.0546012651914701,0.180924084483308,0.102113671718345,0.0857483589176985,0.108628443515627,0.228914998812393,0.0401048625956565
0.00227772963882194,0.052879574587783,0.178112905622355,0.1043079373442,0.0872788237306006,0.107598734293664,0.232129922590061,0.0413882781010621
0.00222510646747091,0.0517335083142349,0.175681295128865,0.106267671274897,0.0884603361300153,0.106392622145785,0.234377219193285,0.0428546646128386
0.00224080337595488,0.0511425499017601,0.173644806790687,0.107965556227793,0.0892610233676402,0.105005973069363,0.235640992164184,0.0444921470849888
0.00232036803269173,0.0510808652048458,0.172011903046882,0.109378080157722,0.0896564485322202,0.1034389190289,0.235918511839396,0.0462865757014634
0.00245891381466468,0.0515178093442071,0.170784041337929,0.11048593007031,0.0896297832929318,0.101695878770217,0.235220264072519,0.048221622662
0.00265119256206819,0.0524184833367367,0.169955878403289,0.111274324911686,0.089171848285636,0.0997854753812374,0.23356978229215,0.0502789216831199
0.00289166768882804,0.0537443293964259,0.169515587050299,0.11173327674106,0.088281028406453,0.0977203579043361,0.231003269844841,0.052438251949699
0.00317458702283959,0.0554537540129881,0.169445274130981,0.111857772219961,0.0869630686666346,0.0955169346931007,0.227569020962003,0.0546777668821995
0.00349405482382941,0.0575027671918576,0.169721482597064,0.111647870381631,0.0852307550280115,0.0931950236951354,0.223326643729707,0.0569742663398261
0.00384410238928033,0.0598456247203477,0.170315758989711,0.111108716329032,0.0831034865162251,0.0907774224632816,0.218346087130976,0.0593035086725811
0.0042187566031233,0.0624354598096119,0.171195271026043,0.11025047215137,0.0806067491681877,0.0882894017192899,0.212706481684535,0.0616405572622526
0.00461210581607821,0.0652248922461786,0.172323465351018,0.109088164719911,0.0777715069854198,0.0857581307521484,0.206494815676814,0.0639601553936608
0.00501836257737562,0.0681666067774289,0.173660759468556,0.107641447274084,0.0746335281186369,0.0832120488138845,0.199804480150116,0.0662371231009598
0.005431922905841,0.0712138964514596,0.175165261386572,0.105934272211494,0.0712326647569956,0.0806802014534578,0.192733720329714,0.0684467692417454
0.00584742191009385,0.0743211694250765,0.176793505397833,0.10399447724682,0.06761210291473,0.0781915623432601,0.185384027626154,0.0705653106396687
0.00625978555940619,0.0774444181058966,0.178501187190729,0.101853293796379,0.0638175958046463,0.0757743594745813,0.17785850025316,0.0725702877600864
0.00666427826314752,0.0805416476951686,0.180243880637989,0.099544792021748,0.0598966935627111,0.0734554223469755,0.170260198461815,0.0744409647065169
0.0070565457901409,0.0835732596472092,0.181977722237717,0.0971052790211638,0.0558979823764145,0.0712595660952107,0.162690522434346,0.07615870176454
0.00743265309026046,0.0865023860221648,0.183660055137905,0.094572664744325,0.0518703464927665,0.0692090285967421,0.15524764375993,0.0777072910920755
0.00778911673941865,0.0892951729009927,0.185250030317312,0.0919858071162107,0.047862266289266,0.067322975928889,0.148025022313855,0.0790732492337418
0.00812293187732823,0.0919210139448921,0.186709165163747,0.0893838468032391,0.0439211641736919,0.0656170893012923,0.141110037679283,0.0802460621790938
0.00843159348677498,0.0943527377475182,0.188001857386471,0.0868055431560604,0.0400928076721217,0.0641032431614346,0.134582758134277,0.0812183782837131
0.00871311167631406,0.096566753843639,0.189095845846593,0.08428862473296,0.036420776366459,0.0627892805346274,0.12851486337837,0.0819861424937879
0.00896602054151923,0.0985431612695929,0.189962604728174,0.0818691692505873,0.0329459969158771,0.0616788881133943,0.122968732507118,0.0825486651550931
0.00918938035813161,0.100265820419833,0.190577657505156,0.0795810281167566,0.0297063481481338,0.0607715704551297,0.117996706453842,0.0829086214731047
0.0093827731657279,0.101722385589074,0.190920802124187,0.0774553095204034,0.0267363360160931,0.0600627206206857,0.113640532797303,0.0830719820155115
0.00954629196713826,0.102904294369512,0.190976246634662,0.0755199312786617,0.0240668362613379,0.0595437837871451,0.10993099875412,0.0830478782425158
0.0096805236507822,0.103806711378373,0.190732662416228,0.0737992508456862,0.0217249009322738,0.0592025101704091,0.106887754173623,0.0828484079192475
0.00978652558081825,0.104428426731033,0.190183167136623,0.0723137764513571,0.0197336234370067,0.0590232931150568,0.104519321583672,0.0824883836279709
0.00986579591694907,0.10477171289599,0.189325249044372,0.0710799608897566,0.0181120559435903,0.0589875867028943,0.102823287278812,0.0819850268022378
0.00992023805083282,0.104842145544749,0.188160638512779,0.0701100774569108,0.016875172978078,0.0590743947303804,0.101786666186843,0.0813576118076258
0.00995211977040919,0.104648393388004,0.186695127318176,0.0694121752262072,0.016033875855441,0.059260820475708,0.101386431871221,0.0806270681784619
0.00996402767589783,0.104201978811074,0.184938335495689,0.0689901080700297,0.0155950336349692,0.0595226650091057,0.101590199928292,0.0798155515657108
0.00995881717854238,0.103517008245272,0.182903429051445,0.068843629189968,0.015561557034088,0.0598350605957045,0.102357049012277,0.078945993520354
0.00993955848874016,0.102609871445604,0.180606796609255,0.0689685414721519,0.0159325018054463,0.0601731245533585,0.103638461170407,0.0780416382786655
0.00990947931561807,0.101498912092944,0.178067696946448,0.0693568944677096,0.0167031979061648,0.0605126176749462,0.105379362672731,0.0771255743677541
0.00987190524415601,0.100204076623914,0.175307891158785,0.0699972208128874,0.0178654011502378,0.0608305903721041,0.107519246942435,0.0762202705567849
0.0098301986904151,0.0987465516115609,0.172351272709286,0.0708748067697507,0.0194074649479049,0.06110599962567,0.109993361112734,0.0753471276471917
0.00978769712438784,0.0971484003625018,0.169223505972687,0.0719719915015702,0.021314530623619,0.0613202809340181,0.112733935893335,0.0745260580052343
0.00974765128730409,0.095432206831199,0.165951678827336,0.073268488590294,0.0235687351023577,0.061457861258089,0.115671434637338,0.0737751028720564
0.00971316445292411,0.0936207328429857,0.162563967649587,0.0747417241879047,0.0261494343377016,0.0615066001331279,0.118735794090464,0.0731100946762874
0.00968713412739743,0.0917365951313505,0.159089307002327,0.0763671894528883,0.0290334401813194,0.0614581456384477,0.121857628956211,0.0725443698340728
0.00967219768227267,0.0898019704823707,0.155557055260661,0.0781188083345075,0.0321952677055842,0.0613081915876686,0.124969375416354,0.0720885371003422
0.00967068319086763,0.0878383379284743,0.151996651797846,0.0799693230899507,0.0356073891180482,0.0610566251084885,0.128006353717166,0.0717503066361456
0.00968456642318969,0.0858662650139911,0.14843726888545,0.0818906982846723,0.0392404897384951,0.0607075597651736,0.130907734605195,0.0715343848612908
0.00971543480530858,0.0839052417832576,0.144907468813645,0.0838545403090367,0.0430637217061434,0.0602692562396174,0.133617396152087,0.0714424394195195
0.00976445914998894,0.0819735635011959,0.14143488077304,0.085832525333479,0.0470449520514071,0.0597539376378726,0.136084655435769,0.0714731369340281
0.00983237399523946,0.080088260952775,0.138045910963979,0.0877968255846594,0.0511510026622601,0.0591775080628955,0.138264857752226,0.0716222535409936
0.00991946735632517,0.0782650742123803,0.134765494072121,0.0897205222396469,0.0553478795250227,0.0585591822803173,0.140119809637912,0.0718828546845706
0.0100255805586283,0.0765184629055615,0.131616888216266,0.0915779917812018,0.0596009877788713,0.0579210342882614,0.141618050974909,0.0722455372663857
0.0101501185603191,0.0748616449000796,0.128621511084053,0.0933452505024783,0.063875329535142,0.0572874745286007,0.142734972120894,0.0726987248426521
0.0102920708045407,0.0733066554769367,0.125798811976311,0.0950002417154185,0.0681356839463069,0.0566846682675628,0.143452789532217,0.0732290053565252
0.0104500421764061,0.0718644183901054,0.12316617246637,0.0965230548378978,0.0723467726756722,0.0561399101374747,0.143760394544135,0.0738215007765461
0.0106222931073431,0.0705448182638733,0.120738827561931,0.0978960734645107,0.0764734168879636,0.0556809713025677,0.143653087902208,0.0744602587412156
0.0108067873631463,0.0693567628964414,0.118529800010686,0.0991040565504118,0.0804806924834528,0.0553354359616219,0.143132214138357,0.0751286574241049
0.0110012457085291,0.0683082261251608,0.116549842673136,0.100134159327449,0.0843340888888699,0.0551300428896935,0.142204715885294,0.0758098155782066
0.0112032035327312,0.0674062658902393,0.114807386950864,0.100975900128118,0.0879996761255615,0.0550900455943949,0.140882634514359,0.0764869991315463
0.0114100706382353,0.066657015564778,0.113308497769642,0.101621081241109,0.0914442864636372,0.0552386022709561,0.139182585808786,0.0771440135190429
0.0116191916570721,0.066065647474343,0.112056836006536,0.102063676937395,0.0946357193133778,0.0555962052708269,0.137125236356013,0.0777655690199602
0.0118279058275917,0.0656363065384221,0.111053626653828,0.102299706434036,0.0975429788826357,0.0561801595634424,0.13473480087873,0.0783376069725228
0.0120336049669383,0.0653720124894617,0.110297627465624,0.102327110821384,0.10013655225611,0.0570041202200504,0.132038575796494,0.0788475779261401
0.0122337882787697,0.065274532445653,0.109785092207585,0.102145650242585,0.10238873215309,0.058077699534041,0.129066519071201,0.0792846671419673
0.0124261122859407,0.0653442301785451,0.109509725951035,0.101756832584532,0.104273985802536,0.0594061542012294,0.125850880213616,0.0796399664687944
0.0126084340980429,0.0655799020740864,0.109462635406958,0.101163879345636,0.105769368823324,0.0609901614740271,0.1224258789028,0.079906592782364
0.0127788466153652,0.0659786109268568,0.109632282770141,0.10037172871669,0.106854979325043,0.0628256907557259,0.118827426177728,0.0800797516654789
0.0129357050011385,0.0665355273919926,0.110004455119724,0.0993870705449654,0.10751444319754,0.0649039748323217,0.115092877212175,0.080156743508746
0.0130776445430935,0.0672437874913859,0.110562262145021,0.0982184027179305,0.107735418490604,0.0672115831220566,0.111260800644772,0.0801369103795108
0.013203590555765,0.0680943747946573,0.111286172648829,0.0968760946587331,0.10751010457465,0.0697305973121006,0.107370749327128,0.0800215255733667
0.013312761014891,0.0690760371878463,0.112154095724566,0.0953724428812146,0.106835738672406,0.07243888700782,0.103463021134512,0.0798136319737064
0.0134046622968749,0.070175249118396,0.113141507999821,0.0937217060193479,0.105715058686078,0.0753104799397126,0.0995784033635004,0.0795178382730464
0.0134790782364967,0.0713762297728807,0.114221625943777,0.091940110523362,0.104156710119762,0.0783160187890766,0.095757896834127,0.0791400823249888
0.0135360529722461,0.0726610254096959,0.115365622231533,0.0900458203934687,0.102175577660792,0.0814232948989011,0.0920424146352069,0.0786873688006754
0.0135758685630616,0.0740096604886282,0.116542886772011,0.0880588634263502,0.0997930267047313,0.084597847273216,0.0884724485718061,0.0781674867580662
0.0135990188764665,0.0754003582228431,0.117721334975723,0.0860010054856087,0.0970370433531816,0.0878036125187122,0.0850876978163911,0.0775887135824222
0.0136061815573536,0.0768098275681877,0.118867766727605,0.0838955670638294,0.0939422611130368,0.091003608299081,0.0819266589547165,0.0769595142814675
0.0135981898693632,0.0782136110153348,0.119948278112096,0.0817671821425828,0.0905498618442643,0.0941606314105258,0.0790261823120365,0.0762882476214801
0.0135760058327973,0.0795864856381332,0.120928723889229,0.0796415046825426,0.0869073421999,0.0972379526496957,0.0764210040407474,0.0755828914889863
0.0135406954673455,0.080902907712643,0.121775223849446,0.0775448699996027,0.0830681444835209,0.100199993464888,0.0741432654982838,0.0748507983570875
0.0134934063383417,0.0821374882346394,0.12245470313985,0.0755039172382097,0.0790911588436706,0.103012972237031,0.0722220304585664,0.074098488639318
0.0134353472134316,0.0832654840623355,0.12293545603096,0.0735451790928017,0.0750401085146151,0.105645508888778,0.0706828081596129,0.0733314868790253
0.0133677695201921,0.0842632889432284,0.123187723143943,0.0716946473346305,0.0709828300767969,0.108069174504203,0.0695470888686347,0.0725542037452562
0.0132919504325657,0.0851089104739327,0.123184271880358,0.0699773253985858,0.0669904590069812,0.110258970334658,0.0688318995440577,0.0717698652041299
0.0132091777070355,0.0857824220927023,0.122900967031106,0.0684167798870998,0.0631365307630399,0.112193721574933,0.0685493895479741,0.0709804887286282
0.0131207366469665,0.0862663821598836,0.1223173146757,0.0670347011282294,0.0594960096374177,0.113856376112759,0.0687064591177244,0.0701869051212093
0.0130278995606601,0.0865462136539044,0.121416961403358,0.0658504813056307,0.0561442602493668,0.115234205328202,0.069304445336015,0.0693888236440128
0.0129319177294328,0.0866105370091884,0.120188133478588,0.0648808187796038,0.053155978856112,0.116318910388038,0.0703388806619495,0.0685849375651226
0.0128340155623124,0.0864514459078685,0.118624004094463,0.0641393582172264,0.0506041032344658,0.117106640673882,0.0717993373261664,0.0677730663646114
0.0127353866233959,0.0860647143657836,0.116722977746311,0.0636363765453993,0.0485587205694491,0.11759792980045,0.0736693681128942,0.0669503289671385
0.012637191471798,0.0854499251186042,0.114488878567849,0.0633785235184429,0.0470859924791022,0.117797552097738,0.0759265516770255,0.0661133397700488
0.0125405574337631,0.0846105136620644,0.111931029032574,0.0633686233722321,0.0462471149218621,0.117714302910363,0.0785426483554966,0.0652584177561537
0.012446580276555,0.0835537277696645,0.109064210064914,0.06360554239137,0.0460973285967767,0.117360709961937,0.0814838694885461,0.0643817996931478
0.0123563273557818,0.0822905069062745,0.105908501315978,0.0640841268071138,0.0466849935966269,0.116752687987784,0.0847112595280714,0.0634798506084031
0.0122708415657933,0.0808352878064673,0.102489007093049,0.064795215503435,0.0480507412745813,0.115909152554842,0.0881811862706963,0.0625492667770529
0.0121911454882467,0.0792057411861766,0.0988354758430151,0.0657257316822607,0.0502267164286869,0.114851610146938,0.0918459305519232,0.0615872667693636
0.0121182452946263,0.0774224428144998,0.0949818195888811,0.0668588563598801,0.0532359234807713,0.113603739934168,0.0956543634071446,0.0605917647553551
0.0120531339253961,0.075508483000486,0.0909655393182067,0.0681742841234329,0.0570916906592944,0.112190978571104,0.0995526971618599,0.0595615197422522
0.0119967927525025,0.0734890218317485,0.086827065873289,0.0696485585331161,0.0617972656278443,0.110640113726842,0.103485297162772,0.0584962560426817
0.011950190675332,0.0713908014474872,0.0826090315637801,0.0712554820122279,0.0673455542033709,0.108978886523324,0.107395541931741,0.0573967526080877
0.011914279760139,0.0692416293728211,0.0783554926202384,0.0729665932734163,0.0737190112334788,0.107235599465324,0.111226720027669,0.0562648997860494
0.0118899870523017,0.0670698471918422,0.0741111246781433,0.0747517035229557,0.0808896899792767,0.105438725595585,0.114922950479229,0.0551037211902301
0.0118782027867361,0.0649037968257616,0.0699204122058935,0.0765794800976968,0.088819453321745,0.103616516410031,0.118430110009981,0.0539173581059277
0.0118797655884049,0.0627712946648898,0.0658268499924583,0.0784180634920574,0.0974603468430831,0.101796609674732,0.12169674658049,0.0527110157201238
0.0118954451975123,0.0606991233741948,0.0618721730750493,0.0802357023865507,0.106755131216782,0.100005642195492,0.124674957623085,0.0514908731825953
0.0119259229248353,0.0587125517484269,0.0580956310781543,0.0820013910894299,0.116637969783121,0.0982688749745758,0.127321213138591,0.0502639610000771
0.0119717698955881,0.0568348932164548,0.0545333226600868,0.0836854930734387,0.127035266214972,0.0966098375679903,0.129597107492258,0.0490380088092452
0.0120334233733998,0.0550871125037745,0.0512176046932023,0.0852603323127738,0.137866645904051,0.0950499954566507,0.131470027603475,0.0478212661620348
0.0121111619396335,0.0534874877073129,0.0481765886979041,0.0867007333200945,0.149046072160696,0.0936084422774483,0.132913727245208,0.046622300519463
0.0122050808366122,0.0520513330400798,0.0454337341931576,0.0879844935356417,0.160483083778929,0.0923016199512492,0.133908795680725,0.0454497794332526
0.0123150691886177,0.0507907864944322,0.0430075454821522,0.0890927771461674,0.172084134407082,0.09114307317759,0.134443005096337,0.0443122460077611
0.01244079095584,0.049714665987894,0.0409113753258563,0.090010424624579,0.18375400860008,0.0901432484806998,0.134511520084636,0.0432178968989138
0.0125816712758217,0.0488283962756133,0.039153336152653,0.0907261743689447,0.195397286166085,0.0893093502046405,0.134116956541714,0.0421743709317265
0.012736889366755,0.0481340068254969,0.0377363169339246,0.0912327918259394,0.206919825864582,0.0886452655272702,0.133269285310191,0.0411885555851814
0.0129053786660683,0.0476301988536216,0.0366581015432667,0.0915271016170288,0.218230241308825,0.0881515676543968,0.131985584214682,0.0402664182608014
0.0130858345355843,0.0473124785849304,0.0359115822429754,0.0916099220543341,0.22924134502787,0.0878256017883721,0.1302896468118,0.0394128685341018
0.0132767296266409,0.0471733533324217,0.0354850599822985,0.0914859075161835,0.239871539266373,0.0876616535089848,0.128211455474429,0.0386316560469228
0.013476336747636,0.0472025866014479,0.0353626216685393,0.0911633097782922,0.250046131920528,0.0876511944402123,0.125786524677368,0.0379253065768742
0.0136827587481942,0.0473875076319926,0.0355245836707066,0.0906536725271082,0.259698550961285,0.0877831956880517,0.123055123358813,0.0372950966906972
0.0138939645558191,0.0477133693343162,0.0359479904676444,0.0899714730073837,0.268771422070557,0.088044496004877,0.120061392775054,0.0367410657233362
0.0141078301775455,0.0481637464517875,0.036607157138441,0.0891337217163859,0.277217468542282,0.0884202096329943,0.116852384359797,0.0362620627359132
0.0143221833254376,0.0487209633191887,0.0374742437183494,0.0881595277333469,0.285000194886419,0.0888941587193804,0.113477046701929,0.0358558253117165
0.014534850376875,0.0493665384896077,0.0385198483197082,0.0870696358002255,0.292094326040071,0.0894493169016708,0.109985190066473,0.035519086043121
0.0147437045406438,0.0500816324851987,0.0397136054283812,0.0858859418661097,0.298485989403357,0.0900682532506433,0.106426453727744,0.0352477011987185
0.0149467141562655,0.0508474853491995,0.0410247766464667,0.0846309958075337,0.304172641590705,0.0907335677515668,0.102849300130709,0.0350367951536036
0.0151419897975121,0.0516458324114305,0.0424228229787377,0.0833275024798679,0.309162749218762,0.0914283093670196,0.0993000606492403,0.034880914456344
0.0153278283476724,0.0524592889587687,0.0438779497713457,0.0819978340240276,0.313475229903856,0.0921363653165609,0.0958220580626155,0.0347741865142226
0.0155027518940205,0.0532716960505787,0.0453616169887282,0.0806635664239621,0.317138653801795,0.0928428082804931,0.0924548290384306,0.0347104787301527
0.0156655394336456,0.0540684195617014,0.0468470084443103,0.0793450511926069,0.320190209834298,0.0935341893917006,0.0892334657311401,0.0346835537180975
0.0158152499370333,0.0548365937650532,0.0483094539732228,0.0780610297973185,0.322674455709775,0.0941987689317231,0.0861880904324555,0.0346872157383752
0.015951236095767,0.0555653018813901,0.0497267983646535,0.0768282962417471,0.324641890404469,0.094826681910602,0.0833434720749916,0.0347154442103486
0.0160731488553599,0.0562456895994633,0.0510797099030897,0.075661412925925,0.32614740383993,0.0954100400518273,0.0807187884543455,0.0347625120116058
0.0161809333444725,0.0568710122060891,0.0523519199746396,0.0745724857167021,0.327248664395306,0.0959429731281627,0.0783275339564459,0.0348230880784056
0.0162748168300214,0.0574366197168826,0.0535303851229087,0.0735710048373141,0.328004498829203,0.0964216108894261,0.0761775697530385,0.0348923244898059
0.016355288913035,0.0579398857212829,0.0546053653672189,0.0726637576369664,0.328473308906837,0.0968440053740071,0.0742713112965285,0.0349659275216024
0.0164230738915162,0.0583800847613084,0.0555704169695697,0.0718548170201679,0.328711564678397,0.097209995350762,0.07260604557816,0.0350402111061636
0.0164790955098702,0.0587582224182001,0.0564223026434637,0.0711456059900148,0.328772416804371,0.0975210192662221,0.0711743673780696,0.035112130776178
0.0165244351067098,0.059076823515934,0.0571608259096835,0.0705350358773257,0.328704474837622,0.0977798875898509,0.0699647200436225,0.0351792966186152
0.016560285104743,0.0593396863729141,0.057788598102229,0.0700197139042232,0.328550800075056,0.0979905270780578,0.0689620232822093,0.0352399648074259
0.0165879004390591,0.0595516135846124,0.0583107464258957,0.069594214268997,0.328348157171927,0.0981577077389786,0.0681483683626013,0.0352930086560945
0.0166085505792118,0.0597181312566431,0.058734569874435,0.0692514051982946,0.328126557160785,0.0982867615404084,0.0675037596719211,0.035337871365326
0.0166234743383036,0.0598452081746356,0.0590691475273697,0.0689828218168759,0.327909108245882,0.0983833027851549,0.067006880591418,0.0353745030583331
0.0166338392076606,0.0599389844845876,0.0593249025632565,0.0687790717870729,0.32771217453235,0.0984529622366298,0.0666358611962761,0.0354032841041404
0.0166407068113995,0.060005517858502,0.0595131271218824,0.0686302588994892,0.327545828797868,0.0985011478454298,0.0663690253550747,0.0354249363546208
0.016645006067524,0.0600505548741863,0.0596454784156873,0.0685264092954205,0.327414572614232,0.0985328428314183,0.0661855949410756,0.0354404249663715
0.0166475155101585,0.0600793358348921,0.0597334640938715,0.0684578844694784,0.327318284404227,0.0985524484004613,0.066066328118144,0.0354508555305302
0.016648855815765,0.0600964413575333,0.0597879422457561,0.0684157634282138,0.327253342610441,0.0985636760400762,0.0659940666516513,0.0354573730328769
0.01664949286339,0.0601056878794359,0.0598186657197395,0.0683921740579123,0.327213856536631,0.0985694930316238,0.0659541654784061,0.0354610696386732
0.0166497507540925,0.0601100768048599,0.0598339014183117,0.0683805525477576,0.327192921209986,0.098572122890095,0.0659347779111947,0.0354629074887746
0.0166498332762462,0.0601117994433542,0.0598401569675607,0.0683758094404662,0.327183794641477,0.0985730988226654,0.0659269713206884,0.0354636618538704
0.0166498513877594,0.0601122978458667,0.0598420520918894,0.0683743801217339,0.327180876740098,0.0985733635082719,0.0659246493846812,0.0354638897259837
