APL,FCR,FDS,FDP,ED,EI,ECU,ECR
0.0496555191847329,0.00753845195205682,0.0912758449505078,0.0323626178533179,0.04352012878157,0.102717543020876,0.105318813478663,0.0281565212389158
0.0571746812488942,0.0106460435574901,0.0953862568003613,0.0320585420719939,0.0455717433825281,0.11424603264,0.107326696415565,0.0299038001813408
0.0659201969637878,0.0139882416060159,0.0993921866513987,0.0317398013062167,0.0477257571895581,0.12531632818798,0.109171818226391,0.031509504167643
0.075901108128816,0.0175529993186734,0.103268346672956,0.0314084311255279,0.0499714115324739,0.135842239111052,0.110844256753291,0.032960261416182
0.0871114256222189,0.0213251255104197,0.106991624599507,0.0310666736590049,0.0522967115452131,0.145744590899815,0.112337367649415,0.034245077384656
0.0995292665121256,0.0252863013476069,0.110541419424125,0.030716941072035,0.0546885684716123,0.154952415731482,0.113647932184171,0.0353555690794759
0.113116210243769,0.0294151431414578,0.113899883569945,0.030361769664531,0.057132960616594,0.163403906118734,0.114776188226288,0.0362861341099689
0.127816902386925,0.0336873138521346,0.117052063779562,0.0300037645283439,0.0596151059858726,0.171047117242758,0.115725739063802,0.0370340509633152
0.143558931671926,0.0380756857706544,0.119985943447886,0.0296455359706673,0.0621196394580469,0.17784042387536,0.116503345757121,0.0375995116994109
0.160253001540437,0.0425505564243398,0.12269239733319,0.02928963018304,0.0646307881880352,0.183752751359804,0.117118617806722,0.0379855916561145
0.177793411206736,0.0470799190093701,0.125165072788466,0.0289384576871504,0.0671325405412171,0.188763604542313,0.117583621721161,0.0381981623807309
0.196058853907191,0.0516297874748271,0.127400209788129,0.0285942236649369,0.0696088055359161,0.192862915228747,0.11791242670527,0.0382457539144116
0.214913531776367,0.0561645746469928,0.129396409247296,0.0282588641081344,0.072043560547562,0.196050724272661,0.118120603105152,0.0381393712576579
0.234208577765871,0.0606475195527848,0.131154359259397,0.0279339908050109,0.074420984055182,0.198336714480982,0.118224686723279,0.0378922684089295
0.253783766376099,0.0650411578563087,0.132676531478705,0.0276208471834648,0.0767255682951178,0.199739615045542,0.118241622591378,0.0375196827341905
0.273469487912057,0.0693078275928213,0.133966862767578,0.0273202765864696,0.0789422063851091,0.200286504176757,0.118188204280067,0.0370385328203398
0.293088955951667,0.0734102013879989,0.1350304383627,0.0270327045390059,0.0810562510220044,0.200012040355857,0.118080527649817,0.0364670842319446
0.312460614380988,0.0773118360562939,0.135873190757422,0.0267581365021243,0.0830535463683893,0.198957651055632,0.117933479478962,0.0358245893514355
0.331400707360672,0.0809777305937641,0.136501623617714,0.0264961721383536,0.0849204393642907,0.197170701306645,0.11776028032695,0.0351309091737419
0.349725970521287,0.084374883541659,0.136922565493429,0.0262460361732349,0.0866437793098011,0.194703658514661,0.117572097032532,0.0344061259206235
0.367256391949234,0.0874728396728014,0.137142956256255,0.026006624778841,0.0882109139684308,0.191613267955146,0.117377735373941,0.0336701551759121
0.383817978724837,0.0902442134198825,0.137169669160488,0.0257765654090242,0.0896096883413401,0.187959753218224,0.117183420014977,0.0329423651211963
0.399245456735102,0.0926651736280421,0.137009370582633,0.0255542874524918,0.0908284517139019,0.183806053572154,0.11699266683144,0.0322412094336197
0.413384833702272,0.0947158734270291,0.136668415970478,0.025338100921986,0.0918560797634523,0.179217104118818,0.116806250479031,0.0315838801671687
0.426095766848504,0.0963808111316009,0.136152776411457,0.0251262803482905,0.092682019454504,0.174259158671218,0.116622266230057,0.0309859871974274
0.437253691809857,0.0976491122195956,0.13546798954444,0.0249171506501024,0.0932963632856838,0.168999153669099,0.116436280033686,0.030461271027936
0.446751679746085,0.0985147267099981,0.134619131437275,0.0247091709441725,0.0936899561459727,0.163504112633502,0.116241556759697,0.0300213555368822
0.454501987414854,0.0989765383177531,0.133610809428348,0.0245010117742213,0.0938545345179799,0.157840590284736,0.116029354828735,0.0296755464439796
0.460437255065091,0.0990383805802762,0.132447176326623,0.0242916216930533,0.0937828947141007,0.152074151257836,0.115789274904361,0.0294306800083323
0.464511307259613,0.0987089538077954,0.131131963156853,0.0240802803836664,0.0934690832686271,0.146268874241512,0.115509649118173,0.0292910249862977
0.466699529867591,0.0980016392015262,0.129668525142221,0.023866637017592,0.092908599300587,0.140486873238874,0.115177954079242,0.0292582394370426
0.466998824758605,0.0969342126273064,0.128059897359083,0.0236507337100678,0.0920985977283386,0.134787832425038,0.114781227514507,0.029331382692511
0.4654271690556,0.0955284673335705,0.126308861158939,0.0234330142496277,0.0910380837198577,0.12922855525651,0.114306468567043,0.0295069816687539
0.462022816033958,0.0938097589743337,0.124418026901513,0.0232143177934335,0.0897280907034565,0.123862528351737,0.113741006295062,0.0297791495116335
0.456843167466649,0.0918064860738822,0.122389940211327,0.022995856833401,0.088171834263715,0.118739497705263,0.113072827360049,0.0301397531809761
0.449963338199004,0.0895495174033262,0.120227216723763,0.0227791792316628,0.0863748322374785,0.113905054815425,0.112290858656689,0.0305786251524335
0.441474438972777,0.0870715786486924,0.117932705091949,0.0225661153818982,0.0843449808466527,0.10940023469142,0.111385201072575,0.0310838133664775
0.431481620948572,0.0844066139715954,0.11550967268394,0.0223587130250113,0.0820925800190108,0.105261132829642,0.110347308707686,0.0316418630278752
0.420101944321022,0.0815891408785419,0.112962004764191,0.0221591633263219,0.0796303067320903,0.101518550135685,0.109170109125115,0.0322381237491189
0.407462143595552,0.0786536169883825,0.110294406196571,0.0219697220600282,0.0769731404956577,0.0981976728093261,0.107848065790876,0.0328570756684574
0.393696357679579,0.0756338348142169,0.107512594757126,0.0217926291916477,0.0741382475597288,0.0953177925211578,0.10637719088264,0.0334826683889506
0.37894387814216,0.0725623580103578,0.10462347686669,0.0216300295164164,0.0711448294438903,0.0928920735521694,0.104755021631346,0.0340986666967685
0.363346956679699,0.0694700110139775,0.101635299297083,0.0214838968417382,0.0680139392888369,0.0909273761754356,0.102980574066153,0.0346889967811602
0.347048708755362,0.0663854325228913,0.098557772785917,0.0213559643471148,0.0647682690854336,0.089424146611854,0.10105428500053,0.0352380858371047
0.330191150874667,0.0633347006724414,0.095402163707309,0.0212476638600551,0.061431912018575,0.0883763820608257,0.098977949693858,0.035731186709265
0.312913409201491,0.0603410346450558,0.0921813475178051,0.0211600765900119,0.0580301057344571,0.0877716763068582,0.0967546608238345,0.0361546786380655
0.295350134051036,0.0574245750055311,0.0889098156974302,0.0210938972722183,0.0545889634157571,0.0875913500105537,0.0943887534368765,0.0364963359161396
0.277630146635868,0.054602243144142,0.0856036295225447,0.021049412777394,0.0511351997662045,0.0878106700900016,0.091885759432888,0.0367455582118788
0.259875331290114,0.0518876779327095,0.0822803187274335,0.0210264952636897,0.047695858304207,0.0883991628291963,0.0892523737292214,0.0368935587669207
0.242199771825068,0.049291245201264,0.0789587285334918,0.0210246091239145,0.0442980447514921,0.0893210238651049,0.0864964328984604,0.0369335086348023
0.224709120468301,0.0468201141124854,0.0756588222710932,0.0210428304183848,0.0409686689806941,0.090535625026713,0.0836269060223959,0.0368606357101667
0.207500183888757,0.0444783941931379,0.0724014474023144,0.021079877039153,0.0377341958381126,0.0919981151668729,0.0806538963360879,0.0366722767276968
0.190660711015248,0.0422673267253356,0.069208070683264,0.0211341472374553,0.0346204041658644,0.093660110562739,0.0775886500341101,0.0363678804293732
0.174269368242893,0.0401855233668925,0.0661004863907262,0.0212037634654302,0.031652153636608,0.0954704688536263,0.0744435655540527,0.035948961761108
0.158395885697357,0.0382292434185695,0.0631005019687597,0.0212866183865444,0.0288531600927467,0.0973761374888221,0.071232195068183,0.0354190096887483
0.143101352214028,0.0363927005179978,0.0602296075085855,0.0213804206816323,0.0262457811997322,0.0993230640361682,0.0679692312337411,0.0347833538463757
0.128438630663415,0.0346683902287804,0.0575086376270906,0.0214827395189768,0.0238508146220333,0.101257152994313,0.0646704753996886,0.0340489966535847
0.114452864365717,0.0330474311266436,0.0549574351276375,0.0215910475519772,0.0216873103646131,0.103125251237816,0.0613527862700709,0.0332244173477574
0.101182049240891,0.0315199124099924,0.052594524682357,0.0217027624787543,0.0197723982305375,0.104876140873076,0.058034008600348,0.0323193535720221
0.0886576513992614,0.030075240442388,0.0504368028496623,0.0218152867998204,0.0181211314209286,0.106461516000726,0.054732880184604,0.0313445661262067
0.0769052524979011,0.0287024761910996,0.0484992497978265,0.0219260453808938,0.0167463479181099,0.107836920682688,0.0514689150144026,0.0303115932558619
0.0659452039624509,0.0273906563964815,0.0467946680159384,0.0220325210089861,0.0156585517474574,0.108962627838835,0.0482622623710424,0.0292325016591142
0.055793269014682,0.026129093115271,0.0453334527924874,0.0221322887947818,0.0148658160641522,0.109804439549129,0.0451335444428778,0.0281196415543165
0.0464612324156892,0.024907647956483,0.0441233977507614,0.0222230504414892,0.0143737094568266,0.110334387579334,0.0421036770199379,0.0269854124016867
0.0379574620615967,0.0237169779530889,0.0431695372872969,0.0223026688845781,0.0141852464722231,0.110531313244374,0.0391936778427795,0.0258420445719199
0.0302874118904077,0.0225487497540453,0.0424740274073027,0.0223692031294849,0.0143008632149907,0.110381310909246,0.0364244658892097,0.0247014010275119
0.0234540599408371,0.0213958191048166,0.0420360667352542,0.0224209428282765,0.0147184186274198,0.109878027203963,0.033816654106641,0.0235748019726094
0.0174582776221064,0.0202523740854839,0.04185185933222,0.0224564420591642,0.0154332215688528,0.10902281414224,0.0313903384925346,0.022472874204292
0.0122991264165907,0.0191140425740089,0.0419146198516366,0.02247455140662,0.0164380834024566,0.107824735725929,0.02916488735334,0.0214054257503077
0.00797407820289826,0.017977965836606,0.0422146204370663,0.0224744467535974,0.0177233957354362,0.106300425931302,0.0271587352878609,0.0203813455739669
0.00447915680960945,0.0168428404480328,0.0427392788018469,0.0224556528543877,0.0192772331498755,0.10447379673561,0.0253891864554476,0.0194085274570715
0.00180900110355302,0.0157089304861986,0.0434732879066347,0.0224180601029592,0.0210854809479767,0.102375600002742,0.0238722308713665,0.018493816359541
-4.31469886172826e-05,0.0145780520926575,0.0443987885020945,0.0223619335843223,0.0231319878554058,0.100042854210876,0.0226223762067496,0.0176429749109646
-0.00108552332009563,0.013453532990872,0.0454955855657813,0.0222879138987187,0.0253987431115772,0.0975181528770077,0.0216524965221416,0.0168606677116195
-0.00132798287310305,0.0123401498016483,0.0467414082832255,0.0221970089866165,0.0278660765992142,0.0948488735739612,0.0209736987688031,0.016150461722327
-0.000782191866583372,0.0112440457212857,0.0481122117835396,0.0220905756583799,0.0305128801205523,0.0920863045834622,0.0205952075710431,0.0155148417161447
0.00053813989182078,0.0101726306887312,0.0495825179416646,0.0219702896436195,0.03331684787094,0.0892847040952962,0.0205242684604785,0.0149552400409884
0.00261699726726242,0.00913446589562268,0.0511257916455129,0.0218381039271241,0.036254734496928,0.086500307460583,0.0207660691039045,0.0144720796608044
0.00543577968774963,0.0081391342172643,0.0527148473390604,0.0216961964787201,0.0393026295942916,0.0837903006433681,0.0213236772837484,0.0140648291372661
0.00897301376270257,0.00719709777860976,0.0543222787076928,0.0215469096265479,0.0424362477851839,0.0812117806935668,0.0221979939473839,0.0137320683782664
0.0132040697485426,0.0063195436876444,0.0559209030987977,0.0213926837938286,0.0456312333303203,0.0788207252153974,0.023387719575366,0.0134715644438753
0.0181008929364288,0.00551821908380359,0.0574842118191932,0.0212359879639019,0.0488634773929161,0.0766709916945614,0.0248893319356724,0.0132803570398436
0.0236317608817747,0.00480525689860471,0.0589868169447891,0.0210792485024831,0.0521094444943789,0.0748133644076603,0.0266970728207973,0.0131548532419332
0.0297610770164158,0.00419299394328653,0.0604048838750335,0.0209247775574384,0.0553465025663832,0.0732946628453746,0.0288029413915299,0.0130909305475171
0.0364492104991338,0.00369378305131848,0.061716537347284,0.0207747023680071,0.0585532489192777,0.0721569227768148,0.0311966929287136,0.0130840469246073
0.043652391261719,0.00331980100263019,0.062902228894404,0.0206308972548117,0.0617098230022117,0.0714366598288829,0.0338658437465398,0.013129356230014
0.0513226683025481,0.00308285385342727,0.0639450561822639,0.0204949205769208,0.0647981962773323,0.0711642254312005,0.0367956847617507,0.0132218269838059
0.0594079384947219,0.0029941811562162,0.0648310280651526,0.0203679592990829,0.0678024299270148,0.0713632653366383,0.0399693067840251,0.0133563620270168
0.0678520525379806,0.00306426053106295,0.0655492716662139,0.0202507838441721,0.0707088923411599,0.0720502904715022,0.0433676400595221,0.0135279163874244
0.0765950041311763,0.00330261424290139,0.0660921779218156,0.0201437155559055,0.0735064300326797,0.0732343678394231,0.0469695103192956,0.0137316108353309
0.085573207823079,0.00371761982245227,0.0664554809625827,0.0200466083986849,0.0761864871467514,0.0749169365486195,0.050751714294858,0.013962838876904
0.0947198700982134,0.00431632722244892,0.0666382675037022,0.0199588455657104,0.0787431691286132,0.0770917522206106,0.0546891188593811,0.0142173649711055
0.103965456835673,0.00510428537635174,0.0666429159371419,0.0198793507029168,0.081173244695966,0.0797449616286344,0.0587547888730701,0.0144914114310227
0.113238258115382,0.00608538121088891,0.0664749695123525,0.0198066128423223,0.0834760782571612,0.082855307113176,0.0629201489340099,0.0147817311202135
0.122465048209787,0.00726169413376946,0.066142951749326,0.0197387240173519,0.0856534852228567,0.0863944573383457,0.0671551833498311,0.0150856631338237
0.131571834247959,0.00863336884439484,0.0656581334045351,0.0196734287559931,0.0877095065201911,0.0903274586956173,0.0714286767348578,0.0154011692383978
0.140484681568598,0.010198509112819,0.0650342589860489,0.0196081848589964,0.0896501050347149,0.094613300008053,0.0757084948148862,0.0157268497703381
0.149130598272542,0.0119530950175727,0.0642872394273373,0.0195402346774779,0.0914827934363817,0.0992055807538608,0.0799619018570503,0.0160619387075754
0.157438457381495,0.0138909259977144,0.0634348178516264,0.0194666854635906,0.0932162071924899,0.104053269728496,0.0841559086115571,0.0164062784115954
0.165339933121416,0.016003591829848,0.0624962167986782,0.0193845967516505,0.0948596369004355,0.109101538937633,0.0882576433744401,0.0167602747762219
0.172770428357778,0.0182804732473352,0.0614917766137257,0.0192910723525029,0.0964225324320602,0.114292657701079,0.0922347388040082,0.0171248332571577
0.179669972581145,0.0207087735888918,0.0604425950869291,0.0191833540853924,0.0979139918013488,0.119566933502472,0.0960557279053864,0.0175012761806193
0.185984072637182,0.0232735827234545,0.0593701775878696,0.0190589137681683,0.0993422507440524,0.124863687249769,0.0996904429523425,0.0178912423988735
0.191664499304036,0.025957974357232,0.0582961049442425,0.0189155397988336,0.100714192613113,0.130122249572702,0.103110409666036,0.018296571638183
0.196669989661857,0.0287431373715184,0.0572417234482218,0.0187514151430821,0.102034900175491,0.135282961012355,0.106289225991837,0.0187191772820253
0.200966839578707,0.0316085409963387,0.0562278582957825,0.0185651842300022,0.103307269961258,0.14028815469252,0.109202913194859,0.0191609123149668
0.204529358875268,0.034532132778232,0.0552745494021157,0.0183560064937809,0.104531706150909,0.145083098307048,0.111830228581046,0.0196234333551239
0.20734016742911,0.0374905676963256,0.0544008074197966,0.0181235941238386,0.105705906507254,0.149616873636926,0.114152932892194,0.0201080672417637
0.209390321890171,0.0404594661626555,0.0536243879856004,0.0178682319750852,0.106824749045514,0.153843175420935,0.116156008770228,0.0206156841729675
0.210679275210017,0.0434136975918807,0.0529615834596454,0.0175907789780453,0.107880284473681,0.157721015819654,0.117827827037355,0.0211465812951206
0.211214679215317,0.0463276848173448,0.0524270330013494,0.0172926521835795,0.108861834927509,0.161215324004272,0.119160254988409,0.0217003807457979
0.211012040288864,0.0491757236645629,0.0520335526830036,0.0169757959021215,0.109756194556785,0.164297430280845,0.12014869967255,0.0222759461218753
0.210094233911953,0.0519323119515366,0.0517919866824241,0.0166426387277318,0.110547923711494,0.166945420333702,0.120792082071794,0.0228713209697151
0.208490884596625,0.0545724827409048,0.0517110794401797,0.0162960409510745,0.111219726251972,0.169144342637431,0.121092743662376,0.0234836921451277
0.206237625752078,0.0570721370079911,0.0517973690915961,0.0159392347731453,0.111752897691599,0.170886255963454,0.12105629184583,0.0241093799143273
0.203375264547233,0.0594083701499559,0.0520551046947361,0.015575759893236,0.112127828877371,0.172170113622451,0.12069139218692,0.0247438556752808
0.199948883823616,0.0615597851287024,0.0524861923474576,0.0152093970575619,0.112324545813956,0.173001492400751,0.12000951291504,0.0253817872985338
0.196006912572114,0.0635067842036466,0.0530901766371146,0.0148441018388058,0.112323263944799,0.173392181817372,0.119024624808269,0.0260171112662987
0.191600190626366,0.0652318322337136,0.053864263193522,0.0144839404270097,0.112104936764727,0.17335964986991,0.117752861032717,0.0266431298366273
0.186781049165452,0.0667196869033127,0.0548033860849057,0.0141330288407994,0.111651783200931,0.172926397873883,0.116212145904779,0.0272526303011843
0.181602428324103,0.0679575937185833,0.0559003215907547,0.0137954768580744,0.110947783345284,0.172119216885104,0.114421805994404,0.0278380223774773
0.176117052956114,0.0689354448602479,0.0571458475231384,0.0134753379584948,0.109979135016145,0.170968363501047,0.112402178775657,0.0283914892725535
0.170376683787709,0.0696459001112163,0.05852894466376,0.0131765663525439,0.108734662623225,0.169506680137958,0.110174231910143,0.0289051480158731
0.164431454206905,0.0700844660675469,0.0600370344435015,0.012902981724877,0.107206167240548,0.167768690258011,0.107759201988556,0.0293712150634819
0.158329297362713,0.0702495291412367,0.061656244549792,0.0126582419912976,0.105388707285502,0.165789699806494,0.105178258480519,0.0297821735268047
0.15211546650286,0.070142339515668,0.0633716919888089,0.0124458242000499,0.103280803824227,0.163604931702596,0.102452197636954,0.0301309381950767
0.145832151498534,0.0697669465040315,0.0651677726050861,0.0122690134056735,0.100884571127986,0.161248713464564,0.0996011712068007,0.0304110137245676
0.139518192820002,0.069130089286769,0.0670284476980207,0.0121308988069396,0.0982057788198597,0.158753733391271,0.0966444551568905,0.0306166408463282
0.133208889711842,0.0682410491937245,0.0689375212816609,0.0120343758347468,0.0952538543432035,0.156150379364271,0.0936002634776426,0.0307429260293808
0.126935896028065,0.0671114694393578,0.0708789040933274,0.0119821523148584,0.0920418328815521,0.153466174790771,0.0904856110433858,0.0307859515271143
0.120727198557724,0.0657551462240291,0.0728368611042103,0.0119767565088118,0.0885862589497651,0.150725326379211,0.0873162268274226,0.0307428643130713
0.114607176698673,0.0641877938858068,0.0747962377149046,0.0120205449207662,0.0849070430179552,0.147948396342516,0.0841065148100329,0.0306119431617392
0.108596744882485,0.0624267874853261,0.0767426580127725,0.012115708038515,0.0810272778747636,0.145152106371575,0.0808695566375683,0.0303926427517175
0.102713577647247,0.0604908880578873,0.0786626885340196,0.0122642722494792,0.0769730214722406,0.142349274305049,0.0776171492240591,0.0300856132122324
0.0969724134014505,0.0583999576360163,0.0805439630721025,0.0124680960290254,0.0727730544259497,0.139548880082278,0.0743598717934208,0.0296926941319026
0.0913854300319343,0.0561746721834779,0.0823752673982611,0.0127288587064404,0.0684586204570087,0.136756255660008,0.071107178992886,0.0292168835337265
0.0859626830732965,0.0538362403414007,0.0841465862073647,0.0130480409111089,0.0640631566407269,0.133973392197918,0.0678675180777973,0.02866228387065
0.0807125936475819,0.0514061342822503,0.0858491168547273,0.0134268968071862,0.0596220175144175,0.131199354824083,0.0646484675620437,0.0280340278967802
0.0756424701036036,0.0489058364129668,0.0874752542893669,0.0138664188970144,0.0551721936896986,0.128430790075236,0.0614568924375479,0.0273381869626791
0.0707590450745152,0.0463566032824263,0.0890185492749088,0.0143672962313059,0.0507520230689448,0.125662506267379,0.058299109371735,0.026581663600784
0.066069007350796,0.0437792467714287,0.0904736402199297,0.0149298666897291,0.0464008919355263,0.122888105294192,0.0551810557032601,0.0257720703214498
0.0615795067994636,0.0411939325634137,0.0918361597168698,0.0155540642153108,0.0421589239324133,0.12010064512962,0.0521084579444116,0.0249175973652969
0.0572986130315864,0.0386199966318125,0.0931026196456115,0.0162393625680545,0.0380666565411383,0.117293313130229,0.0490869974528676,0.024026873037333
0.0532357138141193,0.0360757814566534,0.0942702818734079,0.0169847180019647,0.034164706068763,0.114460088627126,0.0461224716558383,0.0231088204730486
0.0494018444562297,0.033578494285717,0.0953370236440052,0.0177885139338177,0.0304934223729585,0.111596369958249,0.0432209482037592,0.0221725141005215
0.0458099421397589,0.031144089525076,0.0963012065235862,0.0186485109216361,0.027092533638721,0.108699540502854,0.0403889079196298,0.0212270383886077
0.0424750190035094,0.028787176186292,0.0971615550104548,0.0195618050135131,0.0240007809675876,0.105769452554569,0.0376333721127571,0.0202813513319547
0.0394142471297007,0.0265209498284648,0.0979170473907314,0.0205247968246644,0.0212555433466951,0.102808814823251,0.0349620108348119,0.0193441552922914
0.036646949834969,0.0243571474930336,0.0985668195947349,0.0215331727406974,0.0188924551881459,0.0998234751680404,0.0323832300644335,0.0184237777966696
0.0341944968232613,0.0223060239656345,0.0991100831379984,0.0225818986769564,0.0169450200623882,0.0968225917752916,0.0299062366998157,0.0175280643931455
0.0320801047577146,0.020376348051396,0.0995460597216828,0.0236652260645465,0.0154442247677602,0.0938186849047023,0.0275410800452692,0.0166642848388244
0.0303285486338329,0.0185754180806019,0.0998739364253868,0.0247767093814452,0.0144181576218574,0.0908275632238422,0.0252986674997071,0.0158390532272593
0.0289657922177198,0.0169090962704943,0.100092845494857,0.0259092347437008,0.013891634839747,0.0878681255321151,0.0231907516493407,0.0150582623566894
0.0280185472824377,0.0153818616408016,0.100201870740912,0.0270550597729753,0.0138858395364107,0.0849620473330718,0.0212298866180751,0.0143270325817725
0.0275137713512844,0.0139968808150644,0.100200078634551,0.0282058658663037,0.014417978800659,0.0821333683075555,0.0194293529281467,0.0136496753974003
0.0274781128491901,0.0127560953184601,0.100086568122183,0.0293528246350431,0.0155009648669268,0.0794079987676772,0.0178030515159508,0.0130296718754384
0.0279373122657868,0.0116603232445766,0.0998605311638523,0.0304866801985511,0.0171431263815354,0.0768131617311797,0.0163653682712628,0.0124696656719847
0.0289155686833561,0.0107093727048613,0.0995213165619095,0.0315978481394812,0.0193479553249349,0.0743767865026995,0.0151310103281909,0.0119714698141865
0.0304348825444708,0.00990216427813148,0.0990684920865856,0.0326765308236342,0.0221138947793599,0.0721268712787856,0.0141148150272287,0.0115360862481705
0.032514387373847,0.00923685960133025,0.0985019027467266,0.0337128480223937,0.0254341725539104,0.0700908346920751,0.0133315328118599,0.0111637372427152
0.0351696848839071,0.0087109931802102,0.097821724352143,0.034696981352845,0.029296685561414,0.0682948773691201,0.0127955862899199,0.0108539079412581
0.0384121990918731,0.0083216044216188,0.0970285099723263,0.0356193307851805,0.0336839396867598,0.0667633734307809,0.0125208088421157,0.0106053993478836
0.042248565442352,0.00806536684164337,0.0961232243205871,0.036470681223083,0.0385730496732136,0.0655183089175903,0.0125201671204583,0.0104163907260998
0.046680070275919,0.0079387114558102,0.095107261123669,0.0372423768583149,0.0439358032685453,0.0645787808411988,0.0128054722799696,0.0102845100401427
0.0517021544907333,0.00793794153891554,0.0939824418009946,0.0379265006066217,0.049738793430858,0.0639605673397723,0.0133870847456613,0.010206910912171
0.0573039935919213,0.00805933619039913,0.0927509981457334,0.0385160554761477,0.0559436215993171,0.063675776094149,0.0142736171386525,0.0101803544711727
0.0634681650007538,0.00829924029648682,0.0914155444911269,0.0390051442377925,0.0625071736218892,0.0637325753633305,0.0154716402135003,0.0102012942222756
0.0701704124572573,0.00865413842066882,0.0899790443269415,0.0393891431891877,0.0693819677917446,0.0641350100445347,0.016985397210632,0.0102659618006898
0.0773795164141993,0.00912071011383654,0.0884447738540726,0.0396648648728988,0.076516571997775,0.064882903655232,0.0188165323839167,0.0103704515196282
0.0850572783573943,0.00969586453890826,0.0868162840523806,0.0398307031754202,0.0838560848824263,0.0659718456097634,0.0209638393267738,0.010510801971922
0.0931586259093684,0.01037675321627,0.0850973642708724,0.0398867530078239,0.0913426744143549,0.0673932613469628,0.023423034509078,0.0106830732949961
0.101631844288859,0.0111607608302683,0.083292012088679,0.0398348968414213,0.0989161664954575,0.0691345605486626,0.0261865615041861,0.0108834187540212
0.110418938044692,0.0120454749637705,0.0814044140065617,0.0396788519980093,0.106514676072469,0.0711793557369661,0.0292434313078344,0.0111081491405068
0.119456124675913,0.0130286359974595,0.0794389391258434,0.0394241752315829,0.114075273394922,0.073507740552885,0.0325791036942727,0.011353788620987
0.128674458377341,0.0141080683959177,0.0774001458180086,0.0390782237920075,0.121534677826887,0.07609661527435,0.0361754143850849,0.0116171212764901
0.138000577383761,0.0152815948612549,0.0752928009830967,0.0386500736827402,0.128829969855357,0.0789200472729031,0.0400105532609243,0.0118952283943448
0.147357562855989,0.0165469356073774,0.0731219114719952,0.0381503957165272,0.135899308186879,0.08194965590973,0.0440590992747648,0.0121855172576609
0.156665892612821,0.0179015960110658,0.0708927658267546,0.0375912896108867,0.142682635324721,0.085155014123936,0.0482921172997682,0.0124857424495011
0.165844470374683,0.0193427467463519,0.068610982225919,0.0369860775835308,0.149122354854358,0.0885040617187021,0.0526773208912214,0.0127940204851372
0.174811710727501,0.0208671008852041,0.0662825578577499,0.0363490616151818,0.155163967277011,0.0919635271067736,0.0571793037902141,0.0131088382015755
0.183486661288993,0.0224707922023549,0.0639139163190801,0.0356952514195164,0.160756656660548,0.0954993541310114,0.061759842264146,0.0134290551381353
0.191790145462869,0.024149258378862,0.061511951281379,0.0350400718421333,0.16585382430224,0.099077128176136,0.0663782694792877,0.0137539001719031
0.199645909924666,0.0258971325997573,0.0590840647012826,0.0343990583298588,0.170413564976673,0.10266249263118,0.0709919213549895,0.0140829627851467
0.206981758473907,0.0277081473943783,0.0566381961818301,0.0337875482275604,0.174399077620789,0.106221545576907,0.0755566507419867,0.0144161794158708
0.213730647648839,0.0295750552046701,0.0541828389368384,0.0332203753443375,0.177779001651285,0.109721208502045,0.0800274042107416,0.0147538153299884
0.219831713850299,0.0314895706303374,0.0517270386091766,0.0327115754581707,0.180527674836917,0.113129563284093,0.0843588538308266,0.0150964423791641
0.225231201863712,0.0334423391313129,0.0492803732927024,0.0322741104181405,0.182625315419912,0.116416159083668,0.0885060747771356,0.0154449129140114
0.229883271239431,0.0354229360454079,0.0468529153332703,0.0319196177225577,0.18405813506465,0.119552295231383,0.0924252577560133,0.015800329979052
0.233750667229853,0.0374198986362838,0.0444551768492265,0.031658191083072,0.184818387166401,0.12251128780402,0.0960744424244108,0.0161640135909915
0.236805252464795,0.0394207929955646,0.0420980407618146,0.0314981962137431,0.184904350257269,0.125268725456513,0.0994142542838375,0.0165374623780735
0.239028399497343,0.0414123167203107,0.0397926778107874,0.0314461250384859,0.184320245221874,0.127802715323927,0.102408624716931,0.0169223095279476
0.240411240517692,0.0433804369190784,0.0375504493198733,0.0315064902955287,0.183076088629916,0.130094115252014,0.105025473589346,0.0173202722412064
0.240954764034765,0.0453105613511144,0.0353827964673311,0.0316817611357964,0.18118748873413,0.132126745700406,0.107237336157107,0.0177330946721166
0.24066974739795,0.0471877388159145,0.0333011188485068,0.0319723393080715,0.178675391115295,0.133887573307781,0.109021919385827,0.0181624853312454
0.239576520190191,0.0489968831755682,0.0313166468561657,0.0323765750507778,0.175565776415327,0.135366858257324,0.110362574674646,0.0186100506938427
0.237704563429532,0.0507230136046579,0.0294403127999223,0.0328908214200783,0.171889308255535,0.136558259263409,0.111248672772091,0.0190772269223447
0.235091959067835,0.0523515027376878,0.0276826248534366,0.0335095249479251,0.167680930357727,0.137458892850158,0.111675865234434,0.0195652112123131
0.231784709703829,0.0538683248661462,0.0260535470706019,0.0342253493214927,0.162979416880233,0.138069346544496,0.11164621966453,0.0200748939656379
0.22783594694735,0.0552602975615027,0.0245623883066764,0.0350293279980074,0.157826884754335,0.138393646977997,0.111168223232127,0.0206067932214034
0.223305039647255,0.0565153107154735,0.0232177023427336,0.0359110416578408,0.152268277306131,0.138439182032601,0.11025665732227,0.0211609933414716
0.218256607667503,0.0576225361635032,0.0220272005235587,0.0368588167141324,0.146350824406998,0.138216571599311,0.108932351837354,0.0217370904900818
0.212759448734181,0.0585726101438381,0.0209976772299749,0.0378599410292763,0.140123481333472,0.137739478371723,0.107221828416697,0.0223341476992082
0.206885393708641,0.0593577819081126,0.0201349479586389,0.0389008921112286,0.133636350478384,0.137024351593404,0.105156839435703,0.0229506621607238
0.200708114855933,0.0599720248448886,0.0194437995224197,0.0399675720224012,0.126940095249651,0.136090102395997,0.102773809068961,0.0235845468290529
0.194301917352524,0.0604111100506956,0.0189279515340882,0.0410455431591945,0.120085360154919,0.134957716989517,0.100113185810446,0.0242331274984256
0.187740543129568,0.0606726446749464,0.0185900276966717,0.0421202600885484,0.113122212169499,0.133649820455146,0.0972187209491803,0.0248931553841964
0.181096009762501,0.0607560774359763,0.0184315349052829,0.0431772940697778,0.106099615360969,0.132190206370031,0.0941366922826708,0.025560834222612
0.174437502176256,0.0606626722192187,0.0184528484121007,0.0442025478136473,0.0990649465290479,0.130603345076806,0.0909150949152824,0.0262318602993928
0.167830334960523,0.0603954500560873,0.0186532023474272,0.045182457715203,0.0920635578383288,0.12891387957784,0.0876028202715162,0.0269014737093242
0.161335006165792,0.0599591010303023,0.019030686199773,0.0461041796937173,0.0851383929888666,0.127146117229514,0.0842488411498704,0.0275645194489608
0.155006366416906,0.0593598699467428,0.0195822487346331,0.0469557545502466,0.0783296646198822,0.125323527888323,0.0809014173995514,0.0282155173924085
0.14889292742249,0.0586054217903333,0.0203037108666543,0.0477262501786894,0.0716746008989116,0.123468262830319,0.0776073351647099,0.0288487403896533
0.14303633010232,0.0577046942180111,0.0211897886341212,0.0484058804045481,0.0652072678329371,0.121600711536045,0.0744111919741333,0.0294582992804221
0.13747098595645,0.0566677440647556,0.0222341273427293,0.0489861025399308,0.0589584707390727,0.11973911378689,0.0713547393037994,0.0300382327250878
0.13222389951661,0.05550559304695,0.0234293479779096,0.0494596968545488,0.0529557344056096,0.117899241723406,0.0684762931827309,0.0305825993083431
0.127314675816736,0.0542300752081343,0.0247671066051877,0.0498208305291765,0.0472233579387241,0.116094161381793,0.0658102220101277,0.0310855698135447
0.122755713015607,0.0528536864415331,0.0262381667181723,0.0500651069435376,0.0417825374509665,0.114334078386883,0.0633865192244106,0.0315415185049632
0.118552574976513,0.0513894353024,0.0278324838233942,0.0501895998427696,0.0366515474158276,0.112626269651139,0.061230466880722,0.0319451129515571
0.11470453199162,0.0498506942488527,0.0295393009529609,0.0501928716156278,0.031845969683416,0.110975101707929,0.0593623943554855,0.0322914017417634
0.111205251310164,0.0482510511812077,0.0313472529093106,0.0500749753297528,0.0273789580203529,0.109382135565612,0.0577975339708599,0.032575898575453
0.108043612923256,0.0466041623331587,0.0332444759854518,0.0498374409793045,0.0232615257720665,0.107846316468195,0.0565459723544336,0.0327946607793975
0.10520462074915,0.0449236087160844,0.0352187192304369,0.0494832473631292,0.019502844800004,0.106364243668131,0.0556126936925124,0.0329443607638463
0.102670376899728,0.0432227588413997,0.0372574532647431,0.0490167818522611,0.0161105448851015,0.104930510764924,0.0549977094589488,0.0330223498365866
0.100421087763897,0.0415146398309944,0.039347973075188,0.0484437906243534,0.0130910037480344,0.103538103797435,0.0546962685591732,0.0330267143777697
0.0984360738075169,0.0398118175041075,0.0414774919653111,0.0477713212664697,0.0104496181705619,0.102178843321347,0.0546991415456614,0.0329563240836987
0.0966947576625696,0.0381262849780848,0.0436332246685597,0.0470076579568541,0.00819104657695408,0.100843856912603,0.054992972095682,0.0328108709493705
0.0951776048972078,0.036469359653258,0.0458024580949542,0.0461622478566618,0.00631941393733662,0.0995240677100623,0.0555606880492862,0.0325908969152329
0.0938669894051535,0.0348515897636375,0.0479726077178769,0.0452456170191073,0.00483847152626696,0.0982106818690361,0.0563819631316074,0.0322978083337798
0.0927479546115725,0.0332826730785653,0.0501312566158885,0.0442692750232565,0.00375170644246704,0.0968956559243809,0.0574337194193227,0.0319338763831019
0.0918088449921299,0.0317713910978589,0.052266174410977,0.0432456090367341,0.0030623982016554,0.0955721269729453,0.0586906599329914,0.0315022236669633
0.0910417890433594,0.0303255618958638,0.0543653156723345,0.0421877694322505,0.00277362174379226,0.0942347933569934,0.0601258202496222,0.0310067978450254
0.0904430230827118,0.0289520137829349,0.0564168009218542,0.0411095498929424,0.002888197768127,0.0928802379785109,0.0617111270289484,0.0304523327838706
0.0900130529058336,0.0276565805152022,0.0584088864567783,0.0400252648254889,0.00340859251539483,0.0915071875612651,0.0634179495427406,0.029844296725753
0.0897566550676155,0.0264441171699588,0.0603299301988655,0.0389496257852682,0.00433677000356375,0.0901166998282557,0.0652176292165991,0.0291888264333248
0.0896827200950502,0.0253185341695783,0.0621683598075047,0.0378976167353626,0.00567400024361713,0.088712271326457,0.0670819736386978,0.0284926467387421
0.0898039386830693,0.0242828455959359,0.0639126485685143,0.0368843659675473,0.007420627331712,0.0872998634197069,0.0689837054158268,0.0277629761131909
0.0901363336595219,0.0233392273365759,0.0655513051468529,0.0359250111065269,0.00957580215232995,0.085887850491397,0.0708968612336513,0.027007420226256
0.0906986465449612,0.0224890809365093,0.0670728840036884,0.0350345531543602,0.0121371860321176,0.0844868994863997,0.0727971405465272,0.0262338564206718
0.0915115957851056,0.0217331001109731,0.0684660226504507,0.0342276961910145,0.0151006338062031,0.0831097914061374,0.0746622047882127,0.0254503121404222
0.092597031293624,0.021071338190512,0.0697195096806024,0.0335186710980154,0.0184598669136144,0.081771193430208,0.0764719266771942,0.0246648396427183
0.0939770143125089,0.0205032756428266,0.0708223849747896,0.0329210440842758,0.022206148853374,0.0804873879197044,0.0782085873399869,0.0238853886371134
0.0956728516413481,0.0200278868151594,0.0717640712664539,0.0324475130239592,0.026327976301705,0.0792759638829525,0.0798570186781825,0.0231196785644167
0.0977041107577526,0.0196437046511598,0.0725345336788508,0.0321096957041188,0.0308107993228965,0.078155477153926,0.0814046895703507,0.0223750729161212
0.100087640827173,0.0193488823067824,0.0731244612388812,0.0319179138065481,0.0356367834835263,0.0771450865036423,0.0828417363839649,0.0216584587966553
0.102836625191544,0.0191412513898414,0.0735254632654177,0.0318809761472715,0.04078462549647,0.0762641735672273,0.0841609403866173,0.020976135406378
0.105959692406218,0.0190183773632727,0.0737302740621246,0.0320059655952356,0.0462294325101423,0.0755319546626324,0.0853576566583146,0.0203337150488962
0.109460113810209,0.0189776128944452,0.0737329600562623,0.0322980358529114,0.0519426734298541,0.0749670922581736,0.0864297005582575,0.0197360396382343
0.1133351149273,0.0190161495237283,0.0735291227570222,0.0327602259559581,0.0578922086891134,0.0745873126952337,0.0873771979661213,0.019187114685405
0.117575325178599,0.0191310675985132,0.0731160889292551,0.0333933011612352,0.0640424026431663,0.0744090343979721,0.0882024037192572,0.0186900617551301
0.122164385587173,0.0193193844353379,0.0724930788298384,0.0341956285044053,0.0703543202351643,0.0744470081890892,0.08890948967007,0.0182470897229315
0.127078728569636,0.0195781009008914,0.0716613454901818,0.0351630939648373,0.0767860068545015,0.0747139706619417,0.0895043022447746,0.0178594848778978
0.13228753890503,0.0199042466103843,0.0706242815486566,0.0362890664855722,0.0832928475289313,0.0752203134364295,0.0899940908166978,0.017527619852421
0.137752900850434,0.0202949234791601,0.0693874928745208,0.0375644123267435,0.0898279990250334,0.0759737742049565,0.0903872118995632,0.0172509812310766
0.143430132869895,0.0207473466841106,0.067958838480469,0.0389775615064899,0.0963428863783228,0.076979157612598,0.090692818308347,0.0170282152342674
0.149268308245122,0.0212588817666143,0.0663484345999624,0.0405146266809385,0.102787754073618,0.0782380936204595,0.0909205449159091,0.0168571901940173
0.155210956611822,0.0218270768097959,0.064568620231009,0.0421595736570721,0.109112261563342,0.0797488391377894,0.0910802020049489,0.0167350740437176
0.161196937798372,0.0224496890925984,0.0626338831687764,0.0438944413903726,0.115266112665443,0.0815061281383495,0.0911814845119337,0.0166584247535999
0.167161474681382,0.0231247059302788,0.0605607482860111,0.0456996075871243,0.121199707743748,0.083501076466732,0.0912337037533707,0.0166232912344837
0.173037325499044,0.0238503591703821,0.058367631706489,0.0475540944586866,0.126864805260418,0.0857211481369675,0.0912455484548478,0.0166253217024969
0.178756068342913,0.0246251322164592,0.0560746642893507,0.0494359083876205,0.132215175263172,0.0881501884913173,0.0912248825884167,0.0166598763385685
0.184249463444865,0.0254477582801327,0.0537034862631444,0.0513224072379567,0.137207224400557,0.0907685268781905,0.0911785868971507,0.0167221414751584
0.189450854674922,0.0263172090595085,0.0512770143371249,0.0531906893898778,0.141800572912736,0.0935531497511666,0.0911124482312945,0.0168072431267653
0.194296571103837,0.0272326736680562,0.0488191838784075,0.0550179988579449,0.145958568732677,0.0964779443324483,0.0910310972294786,0.0169103579209699
0.198727292098323,0.0281935276845765,0.0463546703808395,0.056782140649922,0.149648730341912,0.0995140114311259,0.0909379925824825,0.0170268192213743
0.202689343726388,0.0291992916854037,0.0439085948232775,0.0584618994755422,0.152843115196728,0.102630042914424,0.090835449321343,0.017152216055394
0.206135897761911,0.0302495785800406,0.0415062165121355,0.0600374529032779,0.155518611285115,0.105792756642345,0.0907247079757386,0.0172824829161452
0.209028044233863,0.0313440299766905,0.0391726165194168,0.0614907679106728,0.157657146116809,0.108967381053792,0.0906060395858974,0.0174139794302678
0.211335703338981,0.0324822430141782,0.0369323757451906,0.0628059689010811,0.159245805900036,0.112118182003597,0.0904788782603666,0.0175435597972299
0.213038338182363,0.0336636896620527,0.0348092527136604,0.0639696662358899,0.160276861530659,0.115209023662946,0.0903419704526126,0.0176686323903087
0.214125433280271,0.0348876300164243,0.0328258661302854,0.0649712366614281,0.160747705443723,0.118203952289245,0.0901935302862937,0.0177872097565324
0.214596715833294,0.036153020497248,0.0310033864047,0.0658030494145403,0.160660710376121,0.121067788913764,0.0900313928054233,0.0178979486132743
0.21446211347403,0.0374584181641152,0.0293612402107808,0.0664606326469406,0.160023023910165,0.123766717346815,0.0898531605545318,0.0180001787941934
0.213741457443912,0.0388018835616031,0.0279168326133062,0.0669427737923451,0.158846309889585,0.126268856692941,0.0896563416408031,0.0180939197739958
0.212463947855535,0.0401808859334056,0.0266852912430074,0.0672515471314384,0.157146443166834,0.128544809959984,0.0894384777503152,0.0181798834447384
0.21066739619497,0.0415922156340894,0.0256792362522741,0.0673922642526898,0.154943163017325,0.130568179603631,0.0891972583554464,0.0182594622050424
0.208397257537889,0.0430319085972451,0.0249085792960119,0.0673733475086809,0.152259693338474,0.132316037451348,0.088930615331357,0.0183347020717545
0.205705469897548,0.0444951866080272,0.024380354850453,0.0672061305514905,0.149122341426063,0.13376933476201,0.0886367929587381,0.0184082612003367
0.202649129820337,0.0459764154009255,0.0240985870870611,0.0669045914356051,0.145560088263834,0.134913240490264,0.0883143914768283,0.0184833545322992
0.199289046147503,0.0474690811789697,0.0240641948948423,0.0664850229545512,0.141604180080708,0.13573740044924,0.087962386355228,0.0185636850631182
0.195688222510196,0.0489657854089051,0.0242749371560515,0.0659656451378996,0.137287726117994,0.136236113957645,0.0875801288100653,0.0186533619636672
0.19191032050984,0.0504582576823814,0.0247254005021029,0.0653661677586859,0.132645305752873,0.136408424913152,0.0871673349282283,0.0187568062275489
0.188018149964067,0.0519373869855463,0.0254070320175519,0.0647073147498869,0.127712589672277,0.136258121116181,0.0867240707675809,0.0188786455722055
0.184072224885045,0.0533932726262541,0.0263082190598684,0.0640103253481052,0.122525981766772,0.135793634052239,0.0862507389051721,0.0190236013292452
0.180129418687907,0.0548152966905227,0.0274144175074555,0.0632964470940122,0.117122287822986,0.135027835071848,0.0857480684165975,0.0191963703816398
0.176241749465952,0.0561922194089508,0.0287083288784822,0.0625864340765935,0.111538413352648,0.133977731316741,0.0852171067322843,0.0194015048866729
0.172455324121369,0.0575122972875635,0.0301701259339719,0.0619000623590688,0.105811089494865,0.13266407133272,0.0846592100480634,0.0196432923294134
0.168809467301441,0.058763422885396,0.0317777252630969,0.06125567433826,0.0999766258826031,0.131110872029695,0.0840760292936601,0.0199256386257074
0.165336056738695,0.0599332854999866,0.033507104023102,0.0606697639567122,0.0940706915983335,0.129344876458925,0.0834694904327578,0.020251957029255
0.162059080413434,0.0610095526946211,0.0353326566924759,0.0601566141726795,0.0881281270850183,0.127394951902382,0.0828417702432953,0.0206250651549361
0.15899442295036,0.061980072094921,0.0372275862620425,0.0597279964248617,0.0821827889792153,0.125291442246971,0.0821952709158441,0.0210470919258369
0.156149879950871,0.0628330910965112,0.0391643228105852,0.0593929391280257,0.0762674268745275,0.123065494376088,0.081532598093143,0.0215193961622241
0.153525391678445,0.0635574906891247,0.0411149613677611,0.0591575690223731,0.0704135892429485,0.120748381564549,0.0808565467178884,0.0220424986356029
0.151113482475042,0.0641430291025203,0.0430517105680863,0.0590250261112527,0.0646515563927522,0.118370845626632,0.0801700968870494,0.0226160292072346
0.148899888519284,0.0645805902035836,0.0449473436799468,0.0589954504484999,0.059010299767864,0.115962475120139,0.0794764183982076,0.0232386900076281
0.146864352228963,0.064862429697946,0.0467756437991268,0.0590660373148956,0.0535174670664978,0.113551132897908,0.0787788796109462,0.0239082349936006
0.144981555621237,0.0649824105048598,0.0485118348203246,0.059231156042548,0.0481993909510976,0.111162444310067,0.0780810549607538,0.0246214660672823
0.143222159295178,0.0649362187733004,0.0501329887664923,0.0594825262298075,0.0430811172146262,0.108819356571828,0.0773867260736858,0.0253742461097477
0.141553911643126,0.0647215535625753,0.0516183985989161,0.0598094428837506,0.0381864477962135,0.106541779227415,0.0766998735080679,0.0261615294600398
0.139942794569407,0.0643382847817198,0.0529499052943993,0.0601990400266978,0.0335379945199221,0.104346314647976,0.0760246588902218,0.0269774103574771
0.138354174961354,0.0637885740863217,0.0541121696058514,0.0606365820217821,0.0291572396208908,0.102246085738788,0.075365399480944,0.027815189571955
0.136753932169975,0.0630769519185479,0.0550928820347904,0.0611057735997279,0.0250645983343969,0.100250665228853,0.0747265378302766,0.0286674587897986
0.135109529178395,0.0622103430295044,0.055882907873578,0.0615890824946457,0.0212794777004988,0.0983661068564619,0.0741126075529133,0.0295262012794473
0.133390992752532,0.061198034623376,0.0564763661586885,0.0620680714397893,0.017820325581772,0.0965950737129911,0.0735281935378146,0.0303829063525172
0.131571771286123,0.0600515852263776,0.056870641194545,0.0625237376896412,0.0147046648970888,0.0949370543596197,0.0729778834282294,0.0312286947854663
0.129629448509432,0.058784676699487,0.0570663246245903,0.0629368574880374,0.0119491095096689,0.0933886544336218,0.0724662078743134,0.0320544527789847
0.127546302606887,0.0574129144296994,0.0570670874163726,0.0632883311128281,0.00956935923647885,0.0919439504634895,0.071997569297829,0.0328509728303924
0.125309708233452,0.0559535806975459,0.0568794847541094,0.0635595234565214,0.00758017168071579,0.0905948930134815,0.0715761616178906,0.0336091005491396
0.122912380375636,0.0544253454808239,0.0565127011466297,0.0637325959814822,0.00599530867592551,0.089331747376122,0.071205885200035,0.034319886520915
0.120352457920806,0.052847940190104,0.055978246322676,0.0637908273408543,0.00482745595652613,0.0881435610169719,0.0708902610092571,0.0349747416131224
0.117633427994946,0.0512418028306552,0.0552896134742713,0.0637189210200078,0.00408811614237149,0.0870186469123827,0.0706323459305179,0.0355655927291861
0.114763900088029,0.0496277059754632,0.0544619102123632,0.0635032985874895,0.0037874766592284,0.0859450699877933,0.0704346499119435,0.0360850345554578
0.111757247930091,0.0480263800839196,0.0535114711415977,0.0631323766440876,0.0039342553673766,0.0849111207589046,0.0702990563601129,0.0365264720052164
0.108631143346919,0.0464581437284774,0.0524554608561945,0.0625968246750941,0.0045355272706691,0.0839057587921918,0.070226749142828,0.0368842481450701
0.105407007792152,0.0449425505386944,0.051311477152888,0.0618897999610818,0.00559653582445199,0.0829190104800459,0.0702181509891806,0.0371537533397705
0.102109404416,0.043498061369335,0.0500971654067931,0.0610071542844252,0.00712049237385288,0.081942310170001,0.0702728776916113,0.0373315128183715
0.0987653899844648,0.0421417489389433,0.0488298555519246,0.0599476050124428,0.00910836742365399,0.0809687787986671,0.0703897103185966,0.0374152511929077
0.0954038445408902,0.0408890403679023,0.0475262324878243,0.0587128610252354,0.0115586778297214,0.0799934372532782,0.0705665855526121,0.0374039328701536
0.0920547970181798,0.0397535010928818,0.046202048961354,0.0573076938119108,0.0144672745768594,0.0790133514541018,0.0708006037544406,0.0372977766047347
0.08874876568753,0.0387466620932278,0.0448718873970847,0.0557399466347,0.0178271365014146,0.0780277053260648,0.0710880549970447,0.0370982419166782
0.0855161323445894,0.0378778908900114,0.0435489743253513,0.0540204790303923,0.0216281759950616,0.0770377999611392,0.0714244639044588,0.0368079860286054
0.082386567979147,0.0371543050440907,0.0422450484583504,0.0521630482953027,0.0258570631730513,0.0760469817931938,0.0718046534668293,0.0364307921476985
0.0793885252646305,0.0365807254816796,0.0409702812286893,0.0501841321404266,0.0304970749511597,0.0750605065225268,0.0722228258114533,0.0359714722967166
0.0765488097062727,0.036159666559427,0.0397332464943323,0.0481026966649268,0.0355279748842776,0.0740853464205281,0.0726726559196675,0.0354357494034122
0.0738922369895569,0.0358913602199785,0.0385409340380545,0.0459399129150189,0.0409259288979276,0.0731299473305111,0.0731473942231699,0.0348301233551017
0.0714413794649398,0.035773812368328,0.0373988000816278,0.0437188260174778,0.0466634616825971,0.0722039416018313,0.0736399755115971,0.0341617247990841
0.0692164005048707,0.0358028901464127,0.0363108478984629,0.0414639833136081,0.0527094585807747,0.0713178251582146,0.0741431330878806,0.0334381600711821
0.0672349721116709,0.0359724386055274,0.0352797326018595,0.0392010307500918,0.0590292180694298,0.0704826086871072,0.0746495170475184,0.0326673512015774
0.0655122687171852,0.0362744242153246,0.0343068856783323,0.0369562887204185,0.0655845601090544,0.0697094525536142,0.0751518135606732,0.0318573758884584
0.06406102854464,0.036699101367303,0.0333926560625618,0.0347563188596999,0.0723339953225293,0.0690092934472453,0.075642860046752,0.0310163129879907
0.0628916730627144,0.0372351975195557,0.0325364649018519,0.0326274921468485,0.0792329587921684,0.0683924707092681,0.0761157511911501,0.0301520990540473
0.0620124747425964,0.0378701131154996,0.031736970417692,0.0305955671993821,0.0862341099316976,0.0678683619157135,0.0765639327634152,0.0292724006696462
0.0614297632726855,0.038590133527551,0.0309922379608422,0.0286852866686743,0.0932876967147628,0.0674450385591658,0.0769812829146469,0.0283845059129078
0.0611481602877423,0.0393806514841188,0.0302999094711068,0.0269199989187935,0.100341979621612,0.067128951939285,0.0773621825768478,0.0274952367675819
0.0611708321563643,0.0402263991825238,0.0296573665187228,0.0253213112228048,0.107343708805676,0.0669246573852058,0.0777015764696383,0.0266108830637513
0.0614997490039379,0.0411116891379996,0.0290618817907379,0.0239087793806679,0.114238647308821,0.0668345839256864,0.0779950240558466,0.0257371576827225
0.0621359358366302,0.0420206616362509,0.0285107550718896,0.0226996372626955,0.120972133453048,0.0668588568269117,0.078238737849743,0.0248791721627016
0.0630796995615899,0.0429375349757273,0.0280014312077307,0.0217085685810641,0.127489676321228,0.0669951807766283,0.0784296067021502,0.0240414313874815
0.0643308155802089,0.0438468534329159,0.027531598876352,0.0209475220465213,0.133737578704203,0.0672387907619054,0.0785652037163986,0.0232278456796494
0.0658886600915521,0.0447337274461009,0.0270992697416704,0.0204255700147663,0.1396635809337,0.0675824754327389,0.0786437810219718,0.0224417583521191
0.0677522789221799,0.0455840608033924,0.0267028373613258,0.0201488101747063,0.14521751561557,0.0680166745540473,0.0786642555899281,0.0216859865706122
0.0699203895667602,0.0463847604450777,0.02634111465771,0.0201203099027621,0.150351958203654,0.0685296491604355,0.078626190881009,0.0209628731131066
0.0723913186052819,0.047123925581557,0.0260133490477449,0.0203400932982656,0.15502285493335,0.0691077206523371,0.07852977806307,0.020274346063411
0.0751628799544159,0.0477910137959215,0.0257192156885426,0.0208051711676294,0.159190110137734,0.069735573115378,0.0783758178380793,0.0196219826536002
0.0782321995688792,0.0483769821189102,0.0254587909642099,0.0215096139817367,0.162818119069621,0.0703966114573774,0.0781657003214004,0.0190070729268609
0.0815954912914516,0.0488744002550665,0.0252325093388174,0.022444667040809,0.16587623828877,0.0710733664836747,0.077901377597844,0.0184306791179931
0.0852477900097943,0.0492775316090932,0.0250411065955743,0.0235989060173562,0.168339190940324,0.0717479366404843,0.0775853227964095,0.0178936875823713
0.0891826525749729,0.0495823771098348,0.0248855520713347,0.0249584299346014,0.170187406161551,0.0724024544893467,0.0772204709738878,0.0173968513899714
0.0933918421266959,0.0497866780431909,0.0247669727158126,0.0265070875129943,0.17140728885058,0.0730195635398611,0.0768101402769974,0.0169408228997487
0.0978650153024067,0.0498898768533852,0.0246865723715487,0.0282267318253111,0.171991410669605,0.0735828881771953,0.0763579357085967,0.0165261763199036
0.102589432855166,0.0498930381650855,0.0246455498012903,0.0300974976295739,0.171938611056398,0.0740774778941174,0.075867640940608,0.0161534202265941
0.10754971248213,0.0497987348970647,0.0246450183667154,0.032098095830896,0.17125400030139,0.0744902082875909,0.075343104617012,0.0158229996808651
0.112727639460584,0.0496109052153035,0.0246859294105134,0.0342061202419354,0.16994886364965,0.0748101249476596,0.0747881260225954,0.0155352877435887
0.118102047574273,0.0493346851529871,0.0247690008906588,0.0363983628344146,0.168040472955299,0.0750287206261374,0.0742063426141913,0.0152905669873393
0.123648780381753,0.0489762207656045,0.0248946526102655,0.0386511344323397,0.165551817691325,0.0751401384143094,0.0736011210767978,0.0150890026307426
0.12934074021458,0.0485424643066888,0.0250629492676011,0.0409405877001027,0.162511267817624,0.0751412933775557,0.0729754544792874,0.0149306097372844
0.135148028185553,0.0480409608137117,0.0252735524504867,0.0432430382580736,0.158952176673979,0.0750319056793044,0.0723318697349879,0.0148152172996744
0.141038174145208,0.0474796334841419,0.0255256826213321,0.0455352787712549,0.1549124262062,0.0748144426911141,0.0716723510222609,0.0147424319900428
0.146976453327284,0.0468665771245691,0.0258180920091724,0.0477948808324224,0.150433914506186,0.0744939745435623,0.0709982856553887,0.0147116040478202
0.152926286172344,0.0462098681827391,0.0261490489149795,0.0500004803999051,0.145561988023926,0.0740779538002218,0.0703104390276468,0.0147217973239309
0.158849717584086,0.0455173979807588,0.0265163331039959,0.0521320439956005,0.140344826055207,0.0735759328454146,0.0696089646090472,0.014771764914743
0.164707970144863,0.0447967338832699,0.0269172411908691,0.0541711142477577,0.134832790547925,0.0729992317854759,0.0688934533134095,0.0148599311696305
0.170462062472542,0.0440550113676718,0.027348600940338,0.0561010340877436,0.129077757257998,0.0723605677976498,0.0681630236937099,0.0149843804352439
0.176073480036118,0.0432988579214475,0.0278067942752515,0.0579071484617068,0.123132443038284,0.0716736564924897,0.0674164510498162,0.015142852898409
0.181504882697388,0.0425343477750035,0.0282877900212346,0.0595769806840325,0.117049739496564,0.0709527968764785,0.0666523305305113,0.0153327481915238
0.186720831434019,0.0417669852012323,0.0287871883509872,0.0611003785304936,0.110882059649487,0.0702124528418518,0.0658692665369182,0.015551137762184
0.191688514991847,0.0410017130852622,0.0293002789836181,0.062469624286688,0.104680704063297,0.069466844983245,0.0650660777456024,0.0157947871296816
0.196378453354506,0.04024294204591,0.0298221143253455,0.063679503711639,0.0984952551381066,0.0687295665298927,0.064242004166252,0.0160601889273685
0.2007651486225,0.039494593923447,0.0303475972449807,0.0647273309225087,0.0923730103056053,0.0680132361317158,0.0633969009314576,0.016343607092157
0.204827650077494,0.0387601530842074,0.0308715815395302,0.0656129287952147,0.0863584648990625,0.0673291981176241,0.062531404152412,0.0166411318491196
0.208550003547022,0.0380427200265546,0.0313889816035099,0.0663385665264546,0.080492852689812,0.0666872777633268,0.0616470574122765,0.0169487444032545
0.21192156513176,0.0373450635471331,0.0318948863396076,0.0669088563810442,0.0748137486588532,0.0660955957576376,0.0607463921241645,0.0172623895677699
0.214937171848035,0.0366696692770822,0.0323846712221131,0.0673306101238004,0.0693547369574203,0.0655604435309862,0.0598329587911356,0.0175780538741753
0.21759717124474,0.0360187828494044,0.0328541023505129,0.0676126541008541,0.0641451468993331,0.0650862197587539,0.0589113073072745,0.0178918459626973
0.219907313895092,0.0353944452285802,0.0332994275403494,0.0677656025078633,0.059209859483889,0.064675427673971,0.0579869140550973,0.0182000754975229
0.221878508293333,0.0347985171819902,0.0337174514879125,0.0678015910951353,0.0545691851813555,0.0643287318926406,0.0570660551914796,0.0184993268918553
0.22352643616243,0.0342326907291318,0.0341055938947045,0.0677339771869911,0.0502388112824785,0.0640450714752044,0.0561556299624811,0.0187865248239235
0.224871032617318,0.033698487374827,0.0344619302441698,0.0675770148699436,0.0462298158999283,0.0638218233539455,0.0552629432404537,0.0190589895403073
0.225935847187279,0.0331972449351852,0.0347852144370061,0.0673455151045428,0.0425487459273106,0.0636550084706514,0.0543954605677799,0.0193144806912184
0.226747313068988,0.0327300957039526,0.035074881765143,0.0670544991284885,0.0391977567131613,0.0635395321696701,0.0535605504775552,0.019551228490476
0.227333958247917,0.0322979383131612,0.0353310309890305,0.0667188519608688,0.036174810759981,0.0634694493982376,0.0527652277613314,0.0197679507866914
0.227725590414984,0.0319014051515863,0.0355543856457974,0.0663529831117185,0.0334739313423109,0.0634382433334282,0.0520159091846327,0.0199638550817085
0.227952480406919,0.0315408276923761,0.0357462365505969,0.0659705033546684,0.0310855058117104,0.0634391045398238,0.051318191335102,0.020138625696007
0.228044563695562,0.0312162030452838,0.0359083690045318,0.0655839281747151,0.028996633316836,0.0634651984057968,0.0506766588914787,0.0202923975307827
0.228030679685048,0.0309271654278625,0.0360429787678764,0.0652044189590505,0.0271915122332375,0.0635099111755483,0.050094730340856,0.0204257185446255
0.227937871993834,0.0306729656242497,0.0361525802009044,0.0648415715382829,0.0256518629923794,0.0635670678917717,0.0495745469728893,0.0205395028864614
0.227790776070276,0.0304524606902705,0.0362399091480864,0.0645032589884868,0.0243573817168297,0.063631117241979,0.0491169097868066,0.0206349761661242
0.227611120726458,0.0302641159124948,0.0363078232871347,0.064195533245687,0.0232862190461918,0.0636972777512012,0.0487212675778644,0.0207136143600672
0.227417365957243,0.0301060208805895,0.0363592035913276,0.0639225886245827,0.0224154771539833,0.0637616386874414,0.0483857577069785,0.0207770783620193
0.227224490641396,0.0299759208127048,0.0363968613490194,0.0636867892381564,0.0217217165666364,0.0638212102624052,0.0481072988617864,0.0208271467962168
0.227043932811796,0.0298712631867258,0.0364234550370075,0.0634887608940951,0.0211814630342615,0.0638739216301211,0.0478817327361167,0.0208656500140891
0.226883676186094,0.0297892589697183,0.0364414202333936,0.0633275458022127,0.0207717033980906,0.0639185703241452,0.0477040093603507,0.0208944079293876
0.226748471263688,0.0297269572274067,0.0364529146760144,0.0632008153624965,0.0204703582069985,0.0639547311855129,0.0475684089900588,0.0209151736286635
0.226640176715269,0.0296813310770553,0.0364597801478766,0.0631051331287114,0.0202567179781943,0.0639826348384828,0.0474687917839754,0.0209295841037706
0.226558205313872,0.0296493717432698,0.0364635227107339,0.0630362573251497,0.0201118297818963,0.0640030250300539,0.0473988645393114,0.0209391193251411
0.226500056113484,0.0296281864446447,0.0364653122899192,0.0629894698431536,0.0200188212023156,0.0640170028221364,0.0473524515980957,0.0209450710110336
0.226461908785295,0.029615095166487,0.0364660013890375,0.0629599160265565,0.0199631492392287,0.0640258659649408,0.047323755468739,0.0209485224859429
0.226439246559879,0.0296077206378227,0.0364661609808364,0.06294293647957,0.0199327618037449,0.0640309535143652,0.0473075919541758,0.0209503406632968
0.226427464481641,0.0296040646750577,0.0364661299795251,0.0629343686661748,0.0199181589751112,0.0640335074979763,0.0472995840657437,0.0209511803877575
0.226422412780709,0.0296025626882833,0.0364660734289021,0.0629307926672073,0.0199123406841498,0.0640345640349626,0.0472962979991724,0.0209515004871851
0.226420820161294,0.0296021069774163,0.0364660434969203,0.0629296923632323,0.0199106273855526,0.064034885219184,0.0472953025895642,0.0209515902430585
