APL,FCR,FDS,FDP,ED,EI,ECU,ECR
0.00188785017173683,0.000762502522203681,-0.000775200627628669,0.0223794717631098,0.00138723639110923,-0.000105561080013065,0.000112138153749347,0.00837786288616066
0.00223956677162832,0.00106733332002064,0.000772732512978921,0.0237536841761348,0.00162542896355804,-2.57228966405405e-05,0.00012763206286278,0.0109271266861806
0.00256916973518208,0.0013567530887064,0.00227207675110139,0.024980436994124,0.00185189175209397,5.29997994569927e-05,0.000142935939963723,0.0135415087468499
0.00287379484148468,0.00162850056105103,0.00371177566517262,0.0260467304357457,0.00206506912462389,0.000130501877117367,0.000157933160874142,0.0162265555007139
0.00315090789399381,0.00188056273656122,0.0050815781993555,0.0269417243542672,0.00226361702250683,0.000206764172459545,0.000172509925872506,0.0189895197227895
0.00339834744594292,0.00211120804504763,0.00637219619065134,0.0276569543878205,0.00244642494860625,0.000281858464579546,0.000186557039355817,0.0218392485551236
0.00361435775957451,0.00231901185091526,0.00757543545587552,0.028186488880888,0.00261263096984411,0.000355949919118874,0.000199971603787175,0.0247859793431583
0.00379761143425562,0.00250287389117041,0.00868429845025934,0.0285270227688672,0.00276162947712551,0.00042929687760867,0.000212658598750985,0.0278410446926584
0.00394722184343555,0.00266202777894308,0.0096930581846441,0.0286779090310731,0.00289307195006867,0.000502247987808008,0.000224532325180432,0.031016494938389
0.00406274598538729,0.00279604304687073,0.0105973039156936,0.0286411315253781,0.0030068613136102,0.000575236734760918,0.00023551769982125,0.0343246511887575
0.00414417851051063,0.0029048203152352,0.0113939593455904,0.0284212243342046,0.0031031406004205,0.0006487734590997,0.000245551383167486,0.0377776043978872
0.00419193765063635,0.00298858016100784,0.0120812744272218,0.0280251425114123,0.00318227660603153,0.000723434990463856,0.000254582717830024,0.0413866761034001
0.00420684377216451,0.00304784630161377,0.0126587926318466,0.027462088796657,0.00324483920026792,0.000799852100134073,0.000262574451486264,0.0451618565334301
0.00419009138801564,0.00308342381979877,0.0131272963820614,0.0267433014127343,0.0032915770249551,0.000878695064783885,0.000269503223525805,0.0491112367740115
0.00414321563068469,0.00309637328343319,0.0134887338725617,0.0258818092076769,0.00332339043150686,0.000960657698973879,0.000275359805592415,0.0532404530919134
0.0040680543362221,0.0030879817034217,0.0137461304768913,0.0248921615665789,0.00334130263025234,0.0010464402350211,0.000280149099496432,0.0575521625102597
0.00396670697037433,0.0030597312992631,0.0139034876382458,0.0237901412634961,0.00334643008222754,0.00113673141935168,0.000283889907001086,0.0620455687350386
0.0038414916247784,0.00301326700531134,0.0139656720572607,0.022592468525221,0.00333995313083123,0.00123219019630314,0.000286614490775689,0.0667160162741168
0.00369490122363564,0.00295036356578414,0.013938298156355,0.0213165040032479,0.00332308774915019,0.00133342737415314,0.000288367941958553,0.0715546681967994
0.00352955992175837,0.00287289294912009,0.0138276069239529,0.0199799572707465,0.0032970591249727,0.00144098769031089,0.000289207359732469,0.0765482798545196
0.00334818047487932,0.00278279267119939,0.0136403440577649,0.0186006062728293,0.00326307767634093,0.00155533268621143,0.000289200840358136,0.0816790775226088
0.00315352317948289,0.00268203545874183,0.013383639818477,0.0171960321609105,0.00322231798667099,0.00167682476405809,0.000288426272727808,0.0869247477342821
0.00294835684999432,0.00257260053393099,0.0130648924785323,0.0157833731170216,0.00317590104406725,0.00180571276069156,0.000286969944274477,0.0922585402552512
0.00273542222580479,0.00245644669267396,0.0126916569411592,0.0143791000132426,0.00312488004002413,0.00194211936373785,0.000284924972405274,0.097649485133638
0.00251739816205638,0.00233548729322484,0.012271539964156,0.0129988160032349,0.0030702298251483,0.00208603070023722,0.000282389589148035,0.103062721759876
0.00229687093170277,0.00221156725960205,0.0118121033242726,0.0116570814192934,0.0030128399724695,0.00223728842198866,0.000279465316435649,0.108459934876584
0.00207630692537259,0.00208644221418438,0.0113207760984471,0.010367264697809,0.00295351129825728,0.00239558457134379,0.000276255072304048,0.113799888465835
0.00185802895948137,0.00196175986025221,0.0108047769400763,0.00914141952819044,0.00289295562639882,0.0025604594298235,0.000272861242535127,0.11903904379675
0.00164419629512041,0.00183904371419398,0.010271046755458,0.00799018803591927,0.00283179851859411,0.00273130245548674,0.000269383744104154,0.124132244385681
0.00143678837020178,0.00171967922493619,0.00972619164154348,0.00692272954535721,0.00277058459388176,0.00290735633601214,0.000265918105789649,0.129033449528457
0.00123759218526614,0.00160490223246018,0.0091764355537353,0.00594667425871267,0.00270978494191832,0.00308772413023028,0.000262553598896179,0.133696499378327
0.00104819324772401,0.00149578965861655,0.00862758202865822,0.00506810095893458,0.00264980606491598,0.00327137943612425,0.00025937146226497,0.138075897222379
0.000869969944463862,0.00139325231929279,0.00808498433626286,0.00429153754857059,0.00259099979785685,0.00345717950090025,0.000256443274597279,0.142127596877772
0.000704091163194457,0.00129802978509397,0.00755352357023135,0.00361998290171344,0.00253367373117198,0.00364388116762473,0.00025382952909738,0.1458097829366
0.000551516928518344,0.00121068727016469,0.00703759428107286,0.00305494822770525,0.00247810174647671,0.00383015951474655,0.000251578459126318,0.14908362795727
0.00041300178084209,0.00113161456515685,0.00654109719689981,0.00259651597045505,0.00242453432225561,0.00401462896384727,0.000249725151595593,0.151914006197833
0.000289100602999095,0.0010610270278712,0.00606743834364068,0.00224341418040877,0.00237320823757875,0.00419586649201423,0.000248290971815734,0.154270142343958
0.000180176577516831,0.000998968608710304,0.00561953366651699,0.00199310428530126,0.00232435522916079,0.00437243642923745,0.000247283310795957,0.156126177051606
8.64109407328802e-05,0.000945316858149052,0.00519981827818224,0.00184188025059828,0.00227820913711555,0.00454291622325407,0.000246695652519328,0.157461637545427
7.81420257245035e-06,0.000899789864989209,0.00481025969103484,0.00178497725520467,0.00223501115686743,0.0047059225420526,0.000246507944640383,0.158261808504869
-5.57614789842823e-05,0.000861955093765884,0.00445237467468601,0.00181668818674463,0.00219501297461791,0.00486013714018265,0.000246687243371219,0.158518003093176
-0.000104609054348293,0.000831240105156849,0.00412724955671562,0.00193048643589535,0.00215847774689917,0.00500433200229125,0.000247188594859732,0.15822773375357
-0.000139152735012024,0.000806945140788677,0.00383556377066511,0.00211915358661702,0.00212567902602274,0.00513739334719933,0.000247956113127654,0.157394778167714
-0.000159933795101887,0.000788257530831688,0.00357761629744686,0.00237491062420876,0.00209689777963608,0.00525834407258969,0.000248924218392315,0.156029133214732
-0.000167596261137504,0.000774267844973934,0.0033533544915047,0.00268955122511734,0.0020724176248276,0.00536636410265515,0.000250019006384386,0.154146852676203
-0.000162872706034789,0.000763987663267903,0.00316240470208157,0.00305457559374377,0.00205251840619191,0.00546080792401576,0.000251159724181595,0.151769771517803
-0.000146570329720593,0.000756368799344067,0.00300410407622223,0.00346132320154195,0.00203746835044219,0.00554121851690956,0.000252260326498114,0.148925127626441
-0.000119557469852045,0.000750323766558029,0.00287753295340969,0.00390110268126504,0.00202751518323722,0.0056073369940864,0.000253231079426771,0.145645097608556
-8.2750648818397e-05,0.000744747236083482,0.00278154733511799,0.00436531703008191,0.00202287672457122,0.00565910751426491,0.000253980175215854,0.141966264206466
-3.7102233958012e-05,0.00073853819432797,0.00271481102216495,0.0048455821657699,0.00202373153199842,0.00569667734319828,0.000254415327376894,0.137929029031262
1.64112314133796e-05,0.000730622472335371,0.00267582710847627,0.00533383684793857,0.00203021012526224,0.00572039216577411,0.000254445327948324,0.133576979817167
7.67999845549683e-05,0.000719975301714669,0.00266296853715288,0.0058224421607936,0.00204238725177912,0.00573078679394912,0.000253981562447895,0.128956220481505
0.000143071263501173,0.000705643554372235,0.00267450737984412,0.00630426918466207,0.00206027559163812,0.00572857129462441,0.000252939486628549,0.124114674866677
0.000214238782039635,0.000686767343339501,0.00270864251341858,0.00677277404229653,0.00208382124729839,0.00571461251072128,0.00025124006837912,0.119101379043757
0.000289331458278603,0.000662600686616199,0.00276352547243137,0.00722205996921693,0.00211290129292279,0.00568991112494528,0.000248811191787076,0.113965780292935
0.0003674013999999,0.000632530946801641,0.00283728435506429,0.00764692622370359,0.00214732356339107,0.00565557475790262,0.000245589018644602,0.108757061627846
0.000447531157022514,0.000596096749991177,0.00292804566460196,0.00804290361544738,0.00218682875279809,0.00561278794986609,0.000241519308502075,0.103523508172564
0.000528840257695474,0.000553004083704287,0.00303395392218793,0.00840627656287159,0.00223109478424788,0.00556278009437742,0.000236558706917438,0.0983119268834578
0.000610491045881104,0.000503140300066859,0.0031531888847957,0.00873409202309288,0.00227974332303567,0.00550679238151712,0.000230676016992306,0.0931671268106426
0.000691693823564884,0.000446585796577587,0.00328398021028123,0.00902415621677523,0.00233234824240144,0.00544604465951904,0.000223853467895854,0.0881314646554624
0.000771711292543085,0.000383623185236496,0.00342461936725894,0.00927502057580638,0.00238844581448522,0.00538170305509649,0.000216087985806475,0.0832444591539466
0.000849862288773692,0.000314743773105167,0.00357346857590328,0.00948595860107125,0.00244754637983648,0.00531484926869438,0.000207392461854698,0.0785424769677622
0.000925524816491066,0.000240651177974545,0.00372896669052776,0.00965693524383628,0.00250914722981576,0.00524645258568897,0.000197797002614319,0.0740584918882196
0.000998138408776125,0.000162261922658223,0.00388963214569299,0.00978857010435491,0.00257274639381408,0.00517734570907252,0.000187350142016331,0.0698219181405101
0.00106720585355011,8.0702891578025e-05,0.0040540632473899,0.00988209543745201,0.0026378569405687,0.00510820545478694,0.000176119988561064,0.0658585173553624
0.00113229431433233,-2.69442785299808e-06,0.00422093610443495,0.00993930982244044,0.00270402130910253,0.00503953915319719,0.000164195278159111,0.0621903771704211
0.00119303584685258,-8.6402974809071e-05,0.00438900045187411,0.00996252836523799,0.00277082514375255,0.00497167734150905,0.000151686300688032,0.058835957146312
0.00124912729635688,-0.000168712454681905,0.00455707369706504,0.00995453038182224,0.00283791014408711,0.00490477308335319,0.000138725666673922,0.0558101946421895
0.00130032957547663,-0.000247744991630283,0.00472403373309222,0.00991850559558185,0.00290498553418502,0.00483880800388341,0.000125468877850044,0.0531246602082124
0.00134646635896212,-0.000321474042285289,0.00488881129337793,0.00985799990190827,0.00297183786527536,0.00477360485930849,0.000112094660438313,0.0507877500358428
0.00138742226697802,-0.000387746464955426,0.00505038273330182,0.00977686165181161,0.00303833893951512,0.00470884619033499,9.88050150223529e-05,0.0488049024496309
0.00142314061968675,-0.000444307598848039,0.00520776405624148,0.00967918913620194,0.00310445163458025,0.00464409835238203,8.58249363453237e-05,0.0471788261677953
0.00145362081894109,-0.000488829173898255,0.00536000683445237,0.00956927952558997,0.00317023333043174,0.00457883996697419,7.3401761103497e-05,0.0459097297972617
0.00147891536516907,-0.000518939826680926,0.00550619652959876,0.0094515790870702,0.00323583659671137,0.00451249365085432,6.18041088848412e-05,0.0449955443195785
0.00149912649031774,-0.000532257942916839,0.00564545357758274,0.00933063424464855,0.00330150687327627,0.00444445981687416,5.13203868544007e-05,0.044432132528201
0.00151440239842431,-0.000526426494738694,0.00577693739611676,0.0092110430230984,0.00336757705302569,0.00437415140019148,4.22568304621475e-05,0.0442134806827575
0.00152493314244843,-0.000499149496949527,0.00589985319084745,0.00909740657992601,0.00343445909076876,0.00430102847543945,3.49350537887418e-05,0.0443318674340053
0.00153094620713561,-0.000448229664057772,0.00601346112772591,0.00899428079572371,0.00350263293054867,0.00422463178811503,2.96890897167901e-05,0.0447780040877799
0.00153270188716149,-0.000371606803963398,0.00611708718150268,0.00890612812875943,0.00357263309156221,0.00414461416197373,2.68619122697958e-05,0.0455411405380041
0.00153048852792743,-0.000267396440714714,0.00621013484593664,0.00883726999094578,0.00364503318685913,0.00406076868003048,2.68014475776171e-05,0.0466091335583419
0.00152461764633255,-0.000133928121107921,0.00629209691700074,0.00879183970591439,0.00372042860204082,0.00397305265279884,2.98560914933991e-05,0.0479684779547621
0.00151541891947983,3.02171757379209e-05,0.00636256665168325,0.00877373589049084,0.00379941762713442,0.00388160668409828,3.63697584845683e-05,0.0496043052182219
0.00150323504448881,0.000226171139900452,0.00642124761500047,0.00878657615975948,0.00388258148024956,0.00378676848037696,4.66764925378325e-05,0.0515003575756809
0.00148841651674259,0.000454744382188559,0.00646796139914167,0.00883365139715553,0.00397046381317174,0.00368908125803821,6.10946837679397e-05,0.0536389466868626
0.00147131641923274,0.000716395486859381,0.00650265233279141,0.00891788126798283,0.00406355038652486,0.0035892966211709,7.99209548950885e-05,0.0560009055632709
0.00145228533557809,0.0010112035159906,0.00652538850402156,0.00904177199019465,0.00416224961042207,0.00348837177211258,0.000103423804881864,0.0585655412887274
0.00143166647696423,0.00133884460330973,0.00653635883758585,0.0092073774718471,0.00426687455435309,0.00338746106454781,0.000131837116100706,0.0613105964412575
0.00140979106048279,0.00169857325118035,0.00653586637972608,0.00941626473571212,0.00437762685907294,0.00328790217898323,0.000165353641473858,0.064212228487732
0.00138697393688953,0.00208920890991908,0.00652431812936529,0.00966948420455647,0.00449458280757852,0.00319119745246143,0.000204118592371235,0.0672450177572568
0.00136350946588572,0.00250912837262838,0.00650221169031815,0.00996754516351508,0.00461768170408711,0.00309899100993192,0.000248223456209917,0.0703820149975248
0.00133966766910698,0.00295626445447124,0.00647011899670285,0.0103103966528275,0.00474671668550631,0.00301304230739265,0.000297700187025464,0.0735948385788888
0.00131569073508039,0.00342811133574171,0.00642866759357193,0.0106974141242938,0.00488132813083602,0.00293519663327912,0.000352515927638452,0.0768538292318347
0.00129178998311979,0.00392173684409027,0.00637852032826155,0.0111273923359234,0.00502099990365056,0.00286735313195631,0.000412568432366801,0.0801282671807148
0.00126814339290855,0.0044338018553555,0.0063203546132282,0.0115985450869583,0.00516505871366895,0.0028114309805996,0.000477682360544519,0.0833866530937167
0.00124489377046673,0.00496058691178757,0.00625484250173475,0.0121085124461467,0.00531267686633573,0.00276933439224666,0.000547606602345462,0.0865970506082937
0.00122214758480278,0.00549802607817536,0.00618263265535601,0.0126543760376016,0.00546287854764453,0.00274291708208189,0.000622012780951618,0.0897274842098707
0.00119997450722783,0.00604174795170576,0.00610433502545525,0.0132326826566428,0.00561454957892583,0.00273394673023865,0.000700495051253437,0.0927463820517452
0.00117840770973214,0.0065871235735412,0.00602050884833053,0.0138394759990955,0.00576645036960082,0.00274406987035488,0.000782571286733231,0.0956230499222458
0.00115744500250982,0.00712932075377916,0.00593165433798164,0.0144703358035574,0.0059172316792442,0.00277477755716885,0.000867685713282237,0.0983281610896745
0.00113705088896724,0.00766336408669683,0.0058382081997284,0.0151204234636521,0.00606545277836469,0.00282737208227386,0.000955213011463296,0.100834247411405
0.00111715958057554,0.00818419977428906,0.00574054279774675,0.0157845332186478,0.00620960164044458,0.00290293489865973,0.00104446386917803,0.103116179174288
0.00109767895888809,0.0086867643027846,0.00563896856163108,0.0164571482991738,0.00634811686744504,0.00300229583511922,0.00113469192844509,0.105151623170762
0.00107849541562047,0.00916605599638634,0.00553373908994573,0.0171325017450367,0.00647941110085921,0.00312600367456839,0.00122510203635443,0.106921468701439
0.00105947944569159,0.00961720844697943,0.0054250584329823,0.0178046418366943,0.00660189564527528,0.0032742982121363,0.00131485968371897,0.108410208722309
0.00104049182100606,0.0100355647108357,0.00531309016613088,0.0184675019972433,0.00671400587992613,0.0034470839397546,0.00140310149636303,0.109606260556108
0.00102139013987882,0.0104167509000209,0.00519796798918078,0.0191149745286576,0.00681422678631485,0.00364390546622286,0.0014889466313921,0.110502210874954
0.00100203551428054,0.0107567474219194,0.00507980758594178,0.0197409868706504,0.00690111773868635,0.00386392469215031,0.00157150891805001,0.111094973593035
0.000982299121269587,0.01105195586501,0.00495871933550203,0.0203395786608235,0.00697333571039589,0.00410589973319748,0.00164990955904883,0.111385855298776
0.000962068335213166,0.0112992595700816,0.00483482134110394,0.0209049779099835,0.00702965622985017,0.00436816569640869,0.00172329016189351,0.111380528591068
0.000941252193137616,0.0114960762530071,0.00470825226473437,0.0214316749934892,0.00706899169051993,0.00464861763718997,0.00179082580767213,0.111088916752491
0.000919786012435454,0.0116404015144506,0.00457918358751167,0.0219144937047002,0.00709040686095054,0.00494469627938216,0.0018517378231075,0.110524992223162
0.000897635046287527,0.0117308424444372,0.00444783106925107,0.0223486590738194,0.00709313152298531,0.00525337726319125,0.00190530592723016,0.109706488511714
0.000874797095074489,0.0117666405647981,0.00431446529302687,0.022729861753915,0.00707657003419479,0.00557116470526179,0.00195087947475968,0.108654525024869
0.000851303988283529,0.0117476831286734,0.00417942122802418,0.0230543183214756,0.00704030744009601,0.00589408974919961,0.00198788759236679,0.107393148188123
0.00082722185824986,0.0116745018264695,0.00404310672476834,0.0233188260582229,0.00698411181205613,0.00621771474705069,0.00201584806567339,0.10594879845228
0.000802650181332686,0.0115482585072307,0.00390600976825626,0.0235208103394002,0.00690793278464544,0.00653714384700854,0.00203437484522874,0.104349718845897
0.000777719647295606,0.011370718393156,0.00376870415977406,0.0236583629922168,0.00681189666157738,0.00684704100313246,0.00204318399672949,0.102625324272095
0.000752588995584135,0.0111442120375751,0.00363185315402135,0.0237302707412812,0.00669629876199981,0.00714165664212541,0.00204209789543318,0.100805550319054
0.000727440996122273,0.0108715876018973,0.00349621056444556,0.0237360337640167,0.00656159374078381,0.00741486429896253,0.00203104751794736,0.0989201972632282
0.000702477748717093,0.0105561548701727,0.00336261899788503,0.0236758750312591,0.00640838444594605,0.00766020840132773,0.00201007280208046,0.0969982829889441
0.000677915463524268,0.0102016222219146,0.00323200512797517,0.0235507411545864,0.00623740969538817,0.00787096411319084,0.00197932117607585,0.0950674192857522
0.000653978891831091,0.00981202791410678,0.00310537215900251,0.023362294821204,0.00604953133195197,0.00804020991418013,0.00193904444731867,0.0931532280849523
0.000630895591515736,0.00939166739112195,0.00298378976093436,0.023112898084172,0.00584572101009811,0.00816091345666264,0.00188959425028195,0.0912788158699937
0.000608890215982781,0.00894501869952084,0.00286838173825658,0.0228055854763158,0.00562704727972459,0.00822603114335732,0.0018314162031567,0.0894643244984071
0.000588179000131398,0.00847666823956861,0.00276031164613537,0.0224440262645474,0.00539466358775703,0.00822862172155259,0.00176504289050972,0.0877265745179952
0.000568964588294058,0.00799123894945205,0.00266076661699513,0.0220324759284074,0.00514979777487914,0.00816197393755197,0.00169108581582561,0.0860788130263693
0.000551431319281352,0.00749332265259696,0.00257093979250785,0.0215757178095775,0.00489374348851908,0.00801974792172755,0.0016102265297952,0.0845305732334788
0.000535741054591456,0.00698741790347936,0.00249201188917264,0.0210789964854731,0.0046278536869442,0.00779612951878926,0.00152320720044411,0.0830876481856252
0.000522029610225309,0.00647787436969581,0.00242513249624907,0.0205479444540702,0.00435353615860899,0.00748599630359896,0.00143082092052346,0.0817521768337289
0.000510403838492803,0.00596884455666767,0.00237140168557509,0.0199885031392845,0.0040722508098782,0.00708509355388747,0.00133390203101693,0.0805228367285416
0.000500939402638305,0.00546424345912771,0.00233185241894613,0.0194068386097598,0.00378550839449726,0.00659021797940613,0.00123331668280535,0.079395134253422
0.000493679284082035,0.00496771648737159,0.00230743412387522,0.0188092523859937,0.00349487034596633,0.00599940653533718,0.00112995379444056,0.0783617807417878
0.000488633049966023,0.00448261577346896,0.0022989977097276,0.0182020882967993,0.00320194940041851,0.00531212719660897,0.00102471652293393,0.0774131412617042
0.000485776889074227,0.00401198473496412,0.00230728220471694,0.0175916371824198,0.00290841073138084,0.00452946816775779,0.000918514346361323,0.0765377421745801
0.00048505440833504,0.00355855057989494,0.00233290309483265,0.0169840419289021,0.00261597332352192,0.00365432167644077,0.000812255848950871,0.0757228232605125
0.000486378172624975,0.00312472428141595,0.00237634234232171,0.016385205536917,0.00232641125696824,0.00269155826284783,0.000706842289536915,0.0749549193505651
0.000489631961239619,0.00271260741984898,0.00243793997751954,0.0158007045642979,0.00204155446866858,0.00164818733137883,0.000603162015483227,0.0742204542356916
0.000494673700814766,0.00232400516125059,0.00251788712356445,0.015235709645965,0.00176328849376978,0.000533499658297714,0.000502085754114104,0.0735063269060043
0.000501339017174003,0.00196044449581437,0.00261622034413831,0.0146949144026991,0.00149355273477014,-0.000640812478050522,0.000404462775409331,0.0728004692044517
0.000509445330822276,0.00162319670966052,0.00273281728180654,0.0141824740115381,0.0012343369347172,-0.00186056188821489,0.000311117881462049,0.0720923558127281
0.000518796405529467,0.00131330295919897,0.00286739362355356,0.0137019548163467,0.000987675678156198,-0.00310900413584275,0.000222849147084109,0.0713734513744137
0.000529187247635072,0.00103160178707532,0.00301950142857815,0.0132562963835286,0.000755640846261858,-0.00436681060059443,0.000140426312328716,0.070637583819126
0.000540409244742766,0.00077875745582794,0.00318852879978859,0.0128477872230565,0.000540331979504456,-0.00561208113039037,6.45897094024085e-05,0.0698812355106119
0.00055225542481239,0.000555288061565461,0.00337370088408782,0.0124780549845986,0.000343864491414235,-0.00682040019006249,-3.950407977532e-06,0.0691037436628031
0.000564525707241135,0.000361592503803249,0.00357408228891955,0.0121480713791923,0.000168355698705247,-0.00796493997928314,-6.45142758914108e-05,0.0683074009704767
0.000577032001875968,0.000197975504533978,0.00378858114703085,0.0118581714740297,1.59086875411719e-05,-0.0090166134132505,-0.000116452922796449,0.0674974500863955
0.000589602992394185,6.4669962548099e-05,0.00401595517066126,0.0116080864281556,-0.0001114059169166,-0.00994427914366071,-0.000159148516922269,0.0666819714388579
0.000602088433428411,-3.81440199135869e-05,0.0042548200537071,0.0113969881700524,-0.00021157019057233,-0.0107149999658686,-0.000192014910303596,0.0658716704712703
0.000614362808653333,-0.000110324062416591,0.00450366048591542,0.0112235439258173,-0.000282641065944684,-0.0112943550567525,-0.000214498523351037,0.0650795749636969
0.000626328235914152,-0.000151754914652042,0.00476084387224769,0.0110859779950665,-0.000322774295868588,-0.011646805592231,-0.000226079696986936,0.0643206541229188
0.000637916549581635,-0.000162342710134655,0.00502463668031294,0.0109821379686635,-0.000330250084444848,-0.0117361124614317,-0.000226274612854853,0.0636113701434367
0.000649090518685861,-0.000142014212705506,0.00529322321013607,0.0109095627787554,-0.000303500174510127,-0.0115258039297591,-0.000214637848315698,0.0629691733401189
0.000659844161263005,-9.07209872211452e-05,0.00556472649096188,0.0108655504600263,-0.000241136080770172,-0.0109796900090123,-0.000190765596934793,0.0624119545200584
0.000670202113254181,-8.44825062151154e-06,0.00583723095385918,0.0108472240334885,-0.000141978052217059,-0.0100624189272641,-0.000154299553305493,0.0619574715030061
0.000680218036558771,0.000104771950085905,0.00610880650539165,0.0108515942018087,-5.08426182456086e-06,-0.00874006957085085,-0.000104931436178033,0.0616227690453114
0.000689972104644815,0.000248843650429446,0.00637753362591097,0.0108756174318754,0.000170220332040369,-0.00698077226919355,-4.24080987347371e-05,0.0614236119210198
0.000699567661400214,0.000423586467774335,0.00664152909669108,0.010916247817982,0.00038431603659011,-0.0047553489709164,3.34628594869762e-05,0.0613739493882277
0.000709127182941225,0.00062871230318558,0.0068989718550817,0.0109704813215872,0.000637261988878506,-0.00203796281278973,0.000122807107432121,0.0614854265283226
0.000718787672906384,0.000863800002177004,0.00714812826763428,0.0110353915991372,0.000928771840738735,0.00119323367299772,0.000225677397249731,0.0617669553392375
0.000728695615355325,0.00112826885925386,0.007387375945609,0.0111081574065759,0.00125819216707661,0.00495546297607404,0.000342047390243642,0.0622243565024274
0.000739001625163552,0.00142135193828223,0.0076152252706036,0.0111860822137196,0.00162448418414221,0.00926071123974732,0.000471805729574153,0.0628600811661166
0.000749854967173382,0.00174207020885095,0.00783033804129582,0.0112666069323829,0.00202620934222566,0.0141151529032363,0.000614750602278449,0.0636730205564148
0.000761398138581181,0.0020892084778689,0.00803154295626834,0.0113473164992749,0.00246151934558655,0.0195186232900831,0.000770585030642999,0.0646584094295012
0.000773761706651376,0.00246129405598302,0.00821784782189001,0.0114259407737095,0.00292815116005338,0.0254641512219102,0.000938913132522468,0.0658078269878211
0.000787059570417694,0.00285657904440806,0.0083884482932367,0.0115003502281967,0.00342342758702189,0.0319375639316969,0.00111923759428236,0.0671092958195644
0.000801384791959982,0.00327302704727385,0.00854273277094522,0.0115685472788887,0.00394426399037117,0.038917176776909,0.00131095860470143,0.0685474762445866
0.000816806124959008,0.00370830502356403,0.0086802830955113,0.011628654620717,0.00448718173541186,0.0463735803962842,0.00151337449845899,0.0701039506580745
0.000833365343567617,0.00415978090955316,0.008800870964963,0.0116789023310992,0.0050483288188567,0.0542695378222645,0.00172568434922368,0.0717575896881362
0.000851075439044369,0.00462452755081813,0.00890445039900414,0.0117176155544328,0.00562350803299267,0.0625600034225741,0.00194699273085808,0.0734849888994979
0.000869919714480334,0.00509933334902913,0.00899114688220351,0.0117432042665269,0.00620821282489288,0.0711922741832325,0.00217631682695228,0.0752609623161581
0.000889851772469738,0.0055807198451745,0.00906124386934244,0.0117541562668638,0.00679767079161942,0.0801062816183146,0.0024125960093008,0.0770590783069852
0.000910796351589769,0.00606496627176912,0.00911516711868103,0.0117490343833142,0.00738689449087934,0.0892350295594563,0.00265470392094082,0.0788522241455186
0.000932650931994872,0.00654814095232156,0.0091534671079713,0.0117264787693504,0.00797073894295438,0.0985051795896902,0.0029014629940839,0.0806131864998788
0.000955288012337484,0.00702613930783836,0.00917679982822007,0.0116852149129206,0.00854396490659321,0.107837782259411,0.00315166122748189,0.082315234615358
0.00097855796090068,0.00749472813293597,0.00918590649718016,0.011624067510418,0.00910130680672394,0.117149148592401,0.00340407095830503,0.0839326908766973
0.00100229235194442,0.00794959571091839,0.00918159301618709,0.0115419798894695,0.00963754410998986,0.126351852896399,0.00365746929659041,0.0854414723648268
0.0010263076963855,0.00838640722766354,0.00916471014590501,0.0114380383225631,0.0101475749655649,0.135355854730013,0.00391065984575903,0.0868195890068376
0.0010504094524523,0.00880086478916673,0.00913613529304838,0.0113115002347849,0.0106264909857284,0.144069725197907,0.00416249530510992,0.0880475883265457
0.00107439617352676,0.00918877110601149,0.0090967564795362,0.0111618248642466,0.0110696520279412,0.152401960511892,0.00441190052634328,0.0891089417018924
0.00109806364877712,0.00954609555761292,0.00904745866849032,0.0109887045722794,0.0114727596460974,0.160262363565302,0.00465789555332056,0.0899903703013094
0.00112120892333995,0.00986904098234653,0.00898911234281159,0.010792094978503,0.0118319274984092,0.167563471236511,0.00489961808069431,0.0906821089934503
0.0011436341316658,0.010154109326741,0.0089225641181977,0.0105722423811533,0.0121437466697099,0.174222000141674,0.00513634460408947,0.0911781040975295
0.00116515011675638,0.0103981643072712,0.00884862918665981,0.0103297072693179,0.0124053438428183,0.180160277017179,0.00536750935843272,0.0914761390151712
0.00118557981888351,0.0105984894641062,0.00876808547754493,0.0100653828479462,0.0126144305715052,0.185307615236468,0.00559272006085535,0.0915778826240746
0.00120476139217768,0.0107528403118559,0.0086816695260176,0.00978050730544365,0.0127693424405045,0.189601599097198,0.00581176954145634,0.0914888583554064
0.00122255096634103,0.0108594895460416,0.00859007407137783,0.00947666844131637,0.0128690674176523,0.192989242462887,0.00602464254045636,0.0912183358527944
0.0012388249486796,0.0109172642586061,0.00849394727903412,0.00915579959545956,0.0129132629312075,0.195427995836693,0.00623151720458241,0.0907791507339142
0.00125348177157057,0.0109255738569844,0.00839389317988499,0.00882016648990543,0.0129022610245791,0.196886582030755,0.00643276101536329,0.0901874600850503
0.00126644302617778,0.0108844272534556,0.00829047264570455,0.00847234530106768,0.0128370607369257,0.197345641190134,0.0066289209077105,0.08946244098887
0.00127765397192419,0.0107944382179728,0.00818420418842353,0.00811519271692231,0.0127193071441187,0.196798162202451,0.00682070722092873,0.0886259366829715
0.00128708345488425,0.0106568184899957,0.00807556409613018,0.00775180875315396,0.0125512572683604,0.195249678092439,0.00700897113868012,0.0877020522079334
0.00129472328543184,0.0104733590222388,0.00796498577627444,0.0073854929514718,0.0123357339667989,0.192718212717866,0.00719467559729545,0.0867167012498428
0.00130058710386503,0.0102464002354549,0.00785285849489728,0.0070196946684795,0.012076069517476,0.189233981339364,0.00737886017903627,0.0856971085777879
0.00130470872769819,0.00997879219697513,0.00773952580697092,0.00665795852135343,0.0117760406762142,0.184838861404026,0.00756260102953317,0.0846712767788786
0.00130713997252049,0.00967384544066374,0.00762528382118875,0.00630386646713184,0.0114397967052779,0.179585655928542,0.00774696711047938,0.0836674301681362
0.00130794797997289,0.0093352732112253,0.0075103792734275,0.00596097824461687,0.0110717818153059,0.1735371696738,0.00793297404531456,0.0827134510572857
0.0013072121485627,0.00896712632583537,0.00739500745340883,0.00563277189628533,0.0106766537485215,0.166765115817822,0.00812153668896375,0.0818363229179195
0.00130502081376415,0.00857372235071436,0.00727931029073007,0.00532258586354717,0.0102592006151319,0.159348874293255,0.00831342163167133,0.0810615923302987
0.0013014678355247,0.00815957112030962,0.00716337515183357,0.00503356388976926,0.00982425831066868,0.151374130401534,0.00850920110284194,0.0804128598053069
0.00129664922013868,0.00772929862325754,0.00704723494098005,0.00476860376785142,0.00937663073975127,0.142931429258301,0.00870921000398214,0.0799113097905774
0.00129065986668903,0.00728757100758867,0.00693086990892081,0.0045303108005003,0.00892101468855576,0.134114684699343,0.00891350792320562,0.0795752914097007
0.00128359052099565,0.0068390201977891,0.00681421135812107,0.00432095666800146,0.00846193076139863,0.125019679150134,0.00912184788492452,0.0794199623529707
0.00127552503668732,0.00638817251647571,0.0066971473495298,0.00414244422247264,0.0080036615032185,0.115742585198648,0.00933365326952732,0.0794570079152719
0.00126653806148458,0.00593938168143674,0.00657953049000263,0.00399627857065873,0.0075501976413395,0.106378534090238,0.00954800391332423,0.0796944452166171
0.00125669326804069,0.00549676748726411,0.00646118777409787,0.00388354468979429,0.00710519321442437,0.0970202530252305,0.00976363201001373,0.0801365194909504
0.00124604222209155,0.00506416131215166,0.00634193222154814,0.00380489175013636,0.00667193015515339,0.0877567911595566,0.00997892811428556,0.0807836956311782
0.00123462392803934,0.00464505931750818,0.00622157582476344,0.00376052428064309,0.00625329262172679,0.078672352415566,0.0101919572712671,0.0816327445036678
0.00122246503283869,0.00424258391255992,0.00609994324634406,0.00375020027521274,0.00585175102766563,0.0698452509486985,0.0104004850470703,0.0826769201001834
0.00120958062480722,0.00385945381562834,0.00597688576406552,0.00377323624803065,0.00546935536496781,0.0613470022030121,0.0106020130141563,0.0839062201142388
0.00119597554051547,0.0034979628564012,0.00585229503212673,0.00382851910704094,0.00510773715315929,0.053241559040032,0.0107938230505062,0.0853077186335836
0.00118164608748982,0.0031599674985533,0.00572611618570995,0.00391452461097174,0.00476811920603574,0.0455846986731654,0.0109730296297839,0.0868659559068893
0.00116658209715022,0.00284688289866343,0.00559835965554688,0.00402934215495173,0.0044513323546598,0.0384235623295618,0.0111366390695313,0.0885633679859609
0.00115076923017003,0.00255968714599349,0.00546911098700239,0.00417070563193904,0.0041578382387684,0.0317963460186978,0.0112816143969772,0.0903807391507181
0.00113419144917485,0.00229893314783346,0.00533853812859789,0.00433603005440413,0.00388775720856988,0.0257321378796913,0.0114049440461026,0.0922976620891397
0.00111683354223191,0.00206476745457678,0.00520689599716527,0.00452245346945655,0.00364090023245229,0.0202508954374736,0.0115037121545588,0.0942929938787749
0.00109868354909906,0.00185695519048442,0.00507452846786367,0.00472688351905711,0.00341680357478165,0.0153635546447119,0.011575168034985,0.0963452984883255
0.00107973494806335,0.0016749101875969,0.00494186811136637,0.00494604780934482,0.0032147650223385,0.0110722616675926,0.011616792546195,0.0984332672073906
0.00105998850681993,0.00151772940715464,0.0048094339481374,0.0051765470746054,0.0030338806060365,0.00737071780073549,0.0116263595067465,0.100536106434081
0.00103945376097689,0.00138423075648786,0.00467782735347715,0.00541491003303811,0.00287308100275258,0.00424462748013561,0.0116019907860729,0.10263387984059
0.00101815012763906,0.00127299344041915,0.0045477262118978,0.00565764885928632,0.00273116700187506,0.00167223895615431,0.0115422040168303,0.104707792483313
0.000996107667162638,0.00118239999258767,0.00441987749163173,0.00590131426554968,0.00260684349513458,-0.000375033235589494,0.0114459518037604,0.106740408546903
0.000973367480044722,0.00111067910284867,0.00429508851381346,0.00614254916689702,0.00249875141360306,-0.00193191515894145,0.0113126510623627,0.108715800530674
0.000949981708349307,0.00105594833735734,0.00417421727391066,0.00637813978540768,0.00240549704241687,-0.00303852091363115,0.0111422012200639,0.110619633475293
0.00092601312827422,0.0010162558946821,0.00405816221622816,0.00660506302225306,0.00232567828247521,-0.00373955170357382,0.0109349906088754,0.112439190926693
0.000901534363544347,0.000989620656562714,0.0039478518657218,0.00682052915226923,0.00225790765376384,-0.00408345745098094,0.0106918912244034,0.114163348427544
0.000876626796642915,0.000974069941634917,0.00384423468829715,0.00702201927436653,0.0022008320636789,-0.00412157160419033,0.0104142427660024,0.115782497424672
0.000851379285280114,0.000967674509931516,0.00374826947628498,0.00720731724915558,0.00215314952741238,-0.00390722934053907,0.0101038272079059,0.117288421871566
0.000825886791197413,0.000968580453670435,0.00366091642601302,0.00737453589248344,0.00211362308803984,-0.00349487879856212,0.00976283501903328,0.118674132829468
0.000800249000420922,0.000975037633500452,0.00358312890154231,0.00752213710968707,0.00208109214627319,-0.00293919442208529,0.0093938238981805,0.119933671331313
0.000774568981933671,0.000985424333487904,0.00351584573363965,0.00764894576826574,0.00205448134000412,-0.00229420105502247,0.00899967090782635,0.121061894213237
0.000748951913107586,0.000998267880958761,0.00345998383691039,0.00775415742176079,0.00203280708759616,-0.00161241702088309,0.00858351916814782,0.122054259337243
0.000723503892353479,0.00101226111022174,0.00341643092201388,0.00783734026095151,0.00201518194050027,-0.000944023912865295,0.00814872062325327,0.122906624507722
0.000698330855306144,0.00102627469950419,0.00338603809308216,0.00789843166931386,0.00200081695874627,-0.000336070206778381,0.0076987766448101,0.123615069814561
0.000673537607766857,0.00103936552735072,0.00336961212775896,0.00793772960963404,0.00198902240073627,0.000168284805850225,0.00723727828966265,0.124175749395169
0.00064922698746976,0.00105078124349323,0.00336790724209841,0.00795587908343855,0.00197920708108658,0.000530480770876384,0.00676784784676217,0.124584777060556
0.000625499168415079,0.00105996124917978,0.00338161616899381,0.0079538541129867,0.0019708767751904,0.000717214038699389,0.00629408296624222,0.124838150124753
0.000602451122808789,0.00106653429921758,0.00341136044632244,0.00793293586732473,0.00196363202233814,0.000701037919752931,0.00581950432971599,0.124931716103295
0.000580176248501871,0.00107031299626274,0.00345767990665629,0.00789468749358064,0.00195716560471232,0.000460899966049434,0.00534750759897939,0.124861186932956
0.000558764150883168,0.0010712855185865,0.00352102142858471,0.00784092601394064,0.00195125989313223,-1.73891338959499e-05,0.00488132024899105,0.124622204445671
0.000538300552769214,0.00106960497002063,0.00360172698750707,0.00777369160370587,0.00194578418434702,-0.000740760433493461,0.00442396380121921,0.124210458530038
0.000518867310060308,0.00106557674392682,0.00370002097159933,0.00769521473808678,0.00194069210335552,-0.00170857075267942,0.00397822188959407,0.123621855316777
0.000500542530419632,0.00105964426383613,0.003815996754116,0.0076078819082077,0.0019360190875223,-0.00291237116111672,0.00354661449297697,0.122852727045267
0.000483400812804587,0.0010523734409448,0.00394960269460855,0.00751420065998065,0.00193187989516237,-0.00433576510928424,0.00313137854691441,0.121900069901445
0.00046751363560198,0.00104443618696957,0.00410062801772862,0.00741676452733949,0.00192846599391272,-0.00595436124181665,0.00273445500232476,0.120761793259683
0.000452949915932388,0.00103659332224031,0.00426868929046676,0.00731821817972146,0.00192604260320908,-0.0077358257167139,0.00235748223256859,0.119436964041991
0.00043977674506682,0.00102967720259173,0.0044532183912292,0.00722122299136894,0.0019249451165324,-0.00964003845780897,0.00200179551080849,0.117926032812473
0.000428060280650531,0.00102457434961087,0.00465345287416155,0.00712842326736759,0.00192557463026839,-0.0116193570811756,0.00166843210945526,0.116231032509857
0.000417866750235957,0.00102220832534077,0.004868429505339,0.00704241343503358,0.00192839235310855,-0.0136189912543083,0.0013581414435138,0.114355744536262
0.000409263496734829,0.00102352306023577,0.00509698160348216,0.00696570655036374,0.00193391273247602,-0.0155774890422723,0.00107139960080417,0.112305828190257
0.000402319981082193,0.00102946681793484,0.00533774071282194,0.00690070441210269,0.00194269516409251,-0.0174273354956094,0.00080842756878406,0.11008890721391
0.000397108655369757,0.00104097695424015,0.00558914301698584,0.00684966937880326,0.00195533412686454,-0.019095662485978,0.000569212469669635,0.107714604300406
0.000393705630593226,0.00105896559647853,0.00584944071209532,0.00681469774612987,0.00197244757813705,-0.0205050676443995,0.000353531139975328,0.105194515059937
0.000392191081949577,0.00108430633042298,0.0061167183006584,0.00679769447851784,0.00199466353605277,-0.0215745389988579,0.000160975423264903,0.102542117809628
0.000392649354142088,0.00111782193367651,0.00638891349672967,0.00680034926038242,0.00202260495405482,-0.0222204803085774,-9.02142804183781e-06,0.099772622478573
0.000395168742665012,0.00116027314632825,0.00666384215251144,0.00682411410071954,0.00205687318586584,-0.0223578301748911,-0.000157157834145574,0.0969027681024626
0.00039984092946924,0.00121234843991576,0.00693922634218133,0.00687018288096951,0.00209803046865408,-0.0219012659361198,-0.000284237041410854,0.0939505814346457
0.000406760042358163,0.00127465474207298,0.00721272457199013,0.00693947316676951,0.00214658187492228,-0.0207664812859176,-0.000391140915313959,0.0909351081668306
0.00041602129826594,0.00134770909127869,0.00748196310112035,0.00703261050019287,0.00220295714968317,-0.0188715245910783,-0.000478804887830359,0.0878761250662068
0.00042771919625158,0.00143193121957632,0.00774456752776802,0.00714991550380864,0.00226749285674228,-0.0161381830515689,-0.000548194501361496,0.0847938394585721
0.000441945250104396,0.00152763707072046,0.00799819400550729,0.00729139440721947,0.00234041532493943,-0.0124933961154149,-0.000600283913827232,0.081708582907661
0.000458785286988654,0.00163503323892588,0.00824055954333004,0.007456733817381,0.0024218249675296,-0.00787067989973072,-0.000636036660086126,0.0786405076339723
0.00047831637705663,0.00175421227086514,0.00846947071282923,0.00764530052052258,0.00251168259930686,-0.002211542780042,-0.000656388909042302,0.0756092960072872
0.000500603487009263,0.0018851487571516,0.00868284991336484,0.0078561469155119,0.00260979836743239,0.00453312913527245,-0.000662235410349468,0.0726338944095458
0.000525695958400795,0.0020276961744982,0.00887875842209653,0.0080880225786146,0.00271582383672902,0.0124017390902012,-0.000654418278993011,0.0697322822451241
0.000553623903718904,0.00218158451326129,0.00905541581466334,0.00833939245670315,0.00282924765155972,0.0214207225126466,-0.00063371871428988,0.066921284608976
0.000584394611636519,0.00234641880624095,0.00921121581389108,0.00860846211776137,0.00294939507117487,0.0316033891659295,-0.000600851694164962,0.0642164337033533
0.000617989068832659,0.0025216787262404,0.00934473898784253,0.00889321024922272,0.00307543155360163,0.0429488884734723,-0.000556463629235097,0.061631880907836
0.000654358731971458,0.00270671940978427,0.00945476279116351,0.00919142820708322,0.00320637043595173,0.0554413221572183,-0.000501132906423601,0.0591803591036452
0.000693422706299843,0.00290077359352861,0.00954026922405886,0.00950076598541006,0.00334108462533397,0.0690490285677958,-0.000435373200136579,0.0568731931216671
0.000735065494574695,0.00310295507619584,0.00960045016453951,0.00981878358925177,0.00347832208581539,0.083724063122377,-0.000359639382226848,0.0547203546730888
0.000779135465775233,0.00331226349425527,0.00963471046256296,0.0101430064539643,0.00361672480037686,0.0994018988894463,-0.000274335821630796,0.0527305567470138
0.000825444163605603,0.00352759042310779,0.00964266912346578,0.0104709831790128,0.00375485081434823,0.116001370308925,-0.000179826829460282,0.050911381331757
0.000873766541397079,0.00374772686422749,0.00962415917776378,0.010800343458507,0.0038911989236754,0.133424881037417,-7.64489717904087e-05,0.0492694335355307
0.000923842173256347,0.00397137222643109,0.00957922695486632,0.0111288539116982,0.00402423553155025,0.151558893696373,3.547505967068e-05,0.0478105146275567
0.000975377449493114,0.00419714492889798,0.00950813132974814,0.0114544696674516,0.00415242311904164,0.170274714633522,0.000155621355296062,0.0465398057621466
0.00102804872127865,0.00442359471527147,0.00941134317097246,0.0117753799373052,0.00427424963614937,0.189429580522241,0.000283648827662893,0.0454620526928202
0.00108150631448293,0.00464921664985888,0.00928954496191643,0.0120900461909095,0.00438825797802436,0.208868045979295,0.0004191827510253,0.0445817400533248
0.00113537928717786,0.00487246659930148,0.00914363052615901,0.0123972316624002,0.0044930746637196,0.228423663250473,0.000561798181023925,0.0439032432704036
0.0011892807729861,0.00509177788051336,0.00897470486960174,0.0126960207041065,0.00458743690749181,0.247920937218975,0.000711003649917532,0.0434309476294263
0.00124281374383192,0.00530557873573929,0.00878408420969291,0.0129858263818102,0.00467021742514756,0.267177532072957,0.000866225542146434,0.0431693269556867
0.00129557703741262,0.00551231036309111,0.00857329617350266,0.0132663851291499,0.00474044647301374,0.286006700331263,0.00102679355289852,0.0431229777233089
0.00134717151109906,0.00571044532542395,0.00834407986031432,0.0135377382214117,0.00479733067878543,0.30421990068953,0.0011919276132274,0.0432966068890923
0.00139720618137435,0.00589850619096506,0.00809838510002317,0.0138002009262603,0.00484026814816328,0.32162956785499,0.00136072663274554,0.0436949724053617
0.00144530417731367,0.00607508415482117,0.00783837002252029,0.0140543209571998,0.0048688592523179,0.338051993850561,0.00153215937892771,0.0443227747062743
0.00149110831444075,0.00623885723012082,0.00756639607064109,0.0143008279875829,0.00488291260360432,0.353310273882821,0.00170505779018393,0.0451844976816878
0.00153428612192895,0.00638860756193926,0.0072850197774978,0.0145405758301984,0.00488244601459469,0.367237258692523,0.00187811300849567,0.0462841999656052
0.0015745342231331,0.00652323752858164,0.00699698085999637,0.0147744791213887,0.00486768257805903,0.379678442083834,0.00204987441160663,0.0476252611901696
0.00161158203542341,0.00664178440887243,0.00670518629302905,0.0150034470096804,0.00483904223955623,0.390494705077281,0.00221875191467842,0.049210091953864
0.00164519477557101,0.0067434333538663,0.00641268992809104,0.0152283170060852,0.00479712925714596,0.399564841459129,0.00238302178212235,0.0510398193139838
0.00167517573051504,0.0068275282510529,0.00612266708315766,0.0154497923920428,0.00474271585808057,0.406787801994724,0.00254083612692392,0.0531139606410509
0.00170136774388553,0.00689358005161023,0.00583838365944101,0.0156683862627702,0.00467672243756696,0.412084610704392,0.0026902361841306,0.0554300977487984
0.0017236539142186,0.00694127231123761,0.00556315975890309,0.0158843746883016,0.00460019483956635,0.415399917979269,0.00282916936867969,0.0579835620208367
0.00174195757297806,0.00697046389800917,0.00530032828306209,0.0160977609205337,0.0045142794882804,0.416703154390244,0.00295551009531375,0.0607671410907643
0.00175624166088849,0.00698118884386668,0.00505318935352488,0.0163082519961163,0.00442019726252608,0.415989240208355,0.00306708434441427,0.0637708181225457
0.00176650761502588,0.00697365317529416,0.0048249614714962,0.0165152483701931,0.00431921695468869,0.41327880674916,0.00316169797597094,0.0669815550489955
0.00177279382941703,0.00694822853391856,0.00461873025029925,0.0167178465362889,0.00421262901255367,0.408617905032712,0.00323716878822854,0.0703831307792107
0.00177517371910356,0.00690544262082948,0.00443739559077822,0.0169148540990423,0.00410172017685129,0.402077207699263,0.00329136225348478,0.0739560443627363
0.00177375343184519,0.00684596682550381,0.00428361838406976,0.0171048163468525,0.00398774961892862,0.393750738685909,0.00332223074168968,0.0776774916595979
0.00176866929245911,0.00677060161413569,0.00415976808720825,0.0172860528060019,0.00387192717548765,0.383754179654912,0.00332785592516489,0.0815214224207976
0.00176008509757659,0.00668026021616023,0.00406787268882281,0.0174567015845684,0.00375539420312256,0.372222798871054,0.00330649399734751,0.0854586827291489
0.00174818937285786,0.00657595096893479,0.00400957259180576,0.0176147689304794,0.00363920742028478,0.359309040405717,0.00325662332574458,0.0894572450614404
0.00173319265277944,0.00645875862404044,0.00398607980276538,0.0177581815766676,0.00352432593454118,0.345179814914884,0.00317699415746465,0.0934825245930685
0.0017153247837302,0.00632982504831279,0.0039981436318493,0.017884839994434,0.00341160153922218,0.33001354730841,0.00306667996546219,0.0974977766065141
0.00169483223028182,0.00619032994191091,0.00404602393821561,0.0179926712819329,0.00330177230050967,0.313997052791014,0.00292512993579939,0.101464567154922
0.00167197538307041,0.00604147229962417,0.00412947278980659,0.0180796806741267,0.00319545939948631,0.297322323306792,0.00275222195692687,0.10534330774952
0.0016470258994579,0.00588445326875275,0.00424772521747001,0.018144000364584,0.00309316709964873,0.280183306942526,0.00254831533860482,0.109093844468377
0.00162026412595343,0.00572046082909772,0.00439949953463721,0.0181839338802184,0.0029952855739734,0.262772753400884,0.00231430240366875,0.112676091989327
0.00159197663111756,0.0055506564908293,0.00458300747867886,0.0181979942981758,0.00290209621396574,0.245279185329834,0.00205165804856123,0.116050702940969
0.00156245382146724,0.00537616408317596,0.0047959742161294,0.0181849352277015,0.0028137790138031,0.227884045291493,0.00176248632722812,0.119179761808496
0.00153198756456094,0.00519806067148173,0.00503566803235311,0.0181437743709103,0.00273042165877683,0.210759062478931,0.00144956305106915,0.122027489607389
0.00150086874068813,0.00501736963744049,0.00529893928520639,0.0180738102141066,0.00265202999361668,0.194063879552794,0.00111637330724662,0.124560940881833
0.00146938468215133,0.00483505593865613,0.00558226795935236,0.01797463262596,0.00257853954475437,0.177943976153267,0.00076714270734368,0.126750670756933
0.0014378165098242,0.00465202348580315,0.00588181893552639,0.0178461277676777,0.00250982769885171,0.162528920671903,0.000406861127506853,0.128571349225392
0.00140643640775054,0.00446911441085164,0.0061935038638275,0.0176884772632177,0.00244572606000736,0.147930975441904,4.12976950248267e-05,0.130002302888265
0.00137550486375364,0.004287109798511,0.00651304828074506,0.0175021516253209,0.0023860325043963,0.134244072819733,-0.000322994201334031,0.131027969683748
0.00134526786324061,0.00410673134415597,0.00683606241143896,0.0172878984602846,0.00233052253208531,0.121543171126608,-0.000678683065388571,0.131638257286101
0.00131595400908935,0.00392864344554792,0.00715811405359346,0.0170467265927906,0.00227895963874757,0.109883990582302,-0.00101767776487953,0.131828797899701
0.00128777157507404,0.00375345539053808,0.00747480204850828,0.016779887545732,0.00223110453765621,0.0993031206435747,-0.00133115944038541,0.131601090107294
0.00126090556144811,0.00358172347719806,0.00778182901003278,0.0164888555488176,0.00218672309970086,0.0898184819413161,-0.00160962792659666,0.130962516510207
0.00123551487451919,0.00341395299205613,0.00807507204698885,0.016175306702235,0.00214559284301165,0.0814301184967798,-0.00184296366773335,0.129926229079561
0.00121172976766996,0.00325059992878405,0.00835065008127278,0.0158410976561684,0.00210750778822226,0.0741212890849854,-0.00202050594236067,0.12851090204971
0.00118964965374822,0.00309207226253221,0.0086049861891714,0.0154882443098564,0.00207228157724399,0.0678598204958919,-0.00213114796203634,0.126740361222798
0.00116934136429459,0.00293873064991158,0.00883486345545732,0.0151189013014629,0.00203974890227317,0.0625996801873194,-0.00216344907728063,0.124643104687744
0.00115083792507933,0.00279088859107217,0.00903747317611667,0.0147353431103555,0.00200976542911993,0.0582827218336416,-0.00210576394192129,0.122251730628715
0.0011341379333977,0.00264881227131081,0.00921045473251371,0.014339947238387,0.00198220645626129,0.0548405550709823,-0.00194638811074452,0.119602284992205
0.00111920563753901,0.00251272041220539,0.00935192688698731,0.0139351794049784,0.00195696452173716,0.0521964907617719,-0.00167371923825528,0.116733540816008
0.00110597181614141,0.00238278446973086,0.00946051042454043,0.013523580436544,0.00193394613388777,0.0502675154481823,-0.00127643278034948,0.113686224065059
0.0010943355300194,0.00225912943107779,0.00953534191966209,0.0131077546373145,0.00191306782009077,0.0489662528327822,-0.000743670735155645,0.110502205773831
0.00108416677713677,0.00214183533444227,0.00957607818898657,0.0126903596537647,0.00189425173993071,0.0482028748709075,-6.5241424388162e-05,0.107223684298726
0.00107531003235472,0.00203093951826319,0.00958289104649173,0.0122740978887957,0.00187742115216025,0.0478869285582669,0.000768172330789182,0.10389238232589
0.0010675886037634,0.00192643951019075,0.00955645235482459,0.0118617092253555,0.00186249602616217,0.0479290456177827,0.00176479993303239,0.100548780492745
0.00106080968586162,0.00182829638930283,0.00949790989880181,0.0114559644285443,0.00184938903714189,0.0482425032570922,0.00293156845093709,0.0972314055487909
0.00105476993678385,0.00173643840476973,0.00940885508007587,0.0110596585148102,0.00183800210425722,0.0487446087501495,0.00427389091246921,0.0939761886947026
0.00104926136784556,0.00165076462320995,0.0092912836470906,0.0106756036140464,0.00182822356715359,0.0493578891710481,0.005795461702695,0.0908159088214729
0.00104407732604172,0.0015711484121679,0.00914755054553026,0.0103066211168115,0.00181992606519359,0.0500110776475793,0.00749806341085152,0.0877797340898864
0.00103901837434943,0.00149744063866947,0.00898031970624951,0.00995553290159211,0.0018129651753006,0.0506398957402832,0.00938138963934087,0.0848928723997625
0.00103389791739194,0.00142947254147779,0.00879250952613788,0.00962515117217976,0.00180717886314594,0.0511876356450984,0.0114428884925214,0.082176337034859
0.00102854746030867,0.00136705828564294,0.00858723501098633,0.00931826628860009,0.00180238778980118,0.0516055467444604,0.0136776316302762,0.0796468296033351
0.00102282140460175,0.0013099972026122,0.00836774788396663,0.00903763216106381,0.00179839647351224,0.0518530325772296,0.016078213836351,0.0773167388073036
0.00101660126719547,0.00125807568478165,0.0081373762343818,0.00878594909275726,0.00179499523600994,0.0518976683717603,0.0186346879705687,0.0751942498364352
0.00100979918445972,0.00121106870175906,0.00789946534843368,0.00856584409069607,0.00179196280552894,0.0517150544837667,0.0213345399190421,0.0732835552105882
0.00100236057066636,0.00116874095152164,0.00765732117401261,0.00837984851803215,0.00178906943796984,0.0512885255109133,0.0241627077062678,0.0715851548236499
0.000994265845752422,0.00113084772439051,0.0074141575247143,0.00823037285733605,0.00178608044596789,0.0506087372583473,0.02710164826403,0.0700962314360716
0.000985531211491741,0.0010971356111842,0.00717304782410701,0.00811967857449175,0.00178276006388164,0.0496731536968953,0.0301314544343869,0.068811087512929
0.000976208514467224,0.00106734321197978,0.00693688200286547,0.00804984749678403,0.00177887559000517,0.0484854543127186,0.0332300235999018,0.0677216292529667
0.00096638426810092,0.00104120199558361,0.00670832903780311,0.00802274947471285,0.00177420171311919,0.0470548803918606,0.0363732779536424,0.0668178829602748
0.000956177903188794,0.00101843742808332,0.00648980550900505,0.00804000917888592,0.00176852487491379,0.0453955376264174,0.0395354349991852,0.0660885269354667
0.000945739285289534,0.000998770440136099,0.0062834504254193,0.00810297268242236,0.00176164750195932,0.0435256716873083,0.0426893255220904,0.0655214195668457
0.000935245509586818,0.000981919245687941,0.00609110643203104,0.00821267424316988,0.00175339197529446,0.0414669326658202,0.0458067550666969,0.0651041033726077
0.000924896982741604,0.000967601472154878,0.00591430737654467,0.00836980364980667,0.00174360426085049,0.0392436433129282,0.0488589039336463,0.0648242664764305
0.00091491282697089,0.000955536526030693,0.00575427208725221,0.00857467463748706,0.00173215715548909,0.0368820847336054,0.0518167598985708,0.0646701469922906
0.00090552568509856,0.0009454481038634,0.00561190408126008,0.00882719514349523,0.00171895308234326,0.0344098116425404,0.0546515771792728,0.0646308708501445
0.00089697605319177,0.000937066764957545,0.00548779674445536,0.00912684048210463,0.00170392632667479,0.0318550075055055,0.0573353544671139,0.0646967180167772
0.000889506302444899,0.00093013250105671,0.00538224328625563,0.00947263076681239,0.00168704460590118,0.0292458879248504,0.0598413237595289,0.0648593141276352
0.000883354558109104,0.000924397257567113,0.0052952505747898,0.00986311396877079,0.00166830992164316,0.026610158568167,0.0621444399092145,0.0651117440222701
0.000878748581707828,0.000919627367766094,0.00522655593961371,0.0102963558020763,0.00164775869896013,0.023974531994804,0.0642218584473839,0.0654485834075272
0.000875899783657844,0.000915605846305126,0.00517564620834869,0.0107699373368111,0.00162546122722265,0.0213643060949368,0.0660533875773067,0.0658658475359455
0.00087499749877279,0.000912134456367832,0.00514177853340549,0.0112809611246066,0.00160152038511669,0.018803005538169,0.0676219002973183,0.0663608609788773
0.000876203677486473,0.000909035444071972,0.0051240028233803,0.0118260666875374,0.00157606962948336,0.0163120865627258,0.0689136944321349,0.0669320584396584
0.000879648161664281,0.000906152845405695,0.00512118568278686,0.0124014562865943,0.00154927027996751,0.0139107045379188,0.0699187912022507,0.067578731197756
0.000885424712218354,0.000903353310888806,0.00513203567225497,0.0130029317611152,0.00152130819761767,0.0116155429261325,0.0706311655158087,0.0683007358088229
0.000893587933734308,0.000900526442126109,0.00515512961983009,0.013625942825273,0.00149238998507072,0.00944070149799138,0.0710489018901235,0.0690981808133862
0.00090415120511472,0.000897584667827722,0.00518893977628629,0.0142656465932785,0.00146273881045745,0.00739764088412711,0.0711742687155748,0.0699711051127296
0.000917085683848543,0.000894462686882884,0.00523186174090807,0.0149169774146159,0.00143258991958598,0.00549517979939673,0.0710137033127473,0.0709191605909025
0.000932320410802925,0.000891116485687718,0.00528224316682494,0.0155747254403046,0.00140218590323637,0.00373954064450131,0.0705777032655409,0.0719413117439728
0.000949743502265185,0.000887521934307692,0.00533841322156193,0.0162336218689694,0.00137177182467951,0.00213443874432305,0.0698806250597648,0.0730355655428875
0.000969204372204807,0.000883672993360736,0.00539871264043023,0.0168884286074345,0.00134159035272635,0.00068121019399633,0.0689403967569617,0.0741987445775346
0.000990516882208286,0.000879579603826731,0.00546152402674255,0.0175340299894232,0.00131187705455771,-0.000621026907676752,0.067778154864761,0.075426315201577
0.00101346328263912,0.000875265363813364,0.00552530187522185,0.0181655239519878,0.00128285597028767,-0.00177518319646338,0.0664178156318715,0.0767122799042321
0.00103779879660899,0.000870765103871417,0.00558860162167722,0.0187783095779078,0.00125473555247454,-0.00278598619816434,0.0648855896541903,0.0780491398570339
0.00106325670754713,0.000866122451381523,0.00565010681504164,0.0193681676292729,0.00122770504561371,-0.00365975134356894,0.0632094490304018,0.0794279300800346
0.00108955383284214,0.00086138743940299,0.00570865332055165,0.019931331087353,0.00120193139320947,-0.00440414118192359,0.0614185586832016,0.0808383264425972
0.00111639628583123,0.000856614189793231,0.00576324945197187,0.0204645436777594,0.00117755676124461,-0.00502791795843642,0.0595426863833009,0.0822688209897301
0.00114348542917675,0.000851858692654196,0.00581309115465488,0.0209651054328447,0.00115469673751558,-0.00554069450704176,0.0576116080377754,0.0837069597085941
0.0011705238960167,0.00084717671045666,0.00585757172382199,0.0214309049618752,0.00113343922589967,-0.00595268815916056,0.0556545250592385,0.0851396342732481
0.00119722152345462,0.000842621848617268,0.00589628585670371,0.0218604379577066,0.00111384403493295,-0.00627448206286553,0.0536995090008735,0.0865534159537412
0.00122330103976387,0.000838243844624326,0.00592902793100581,0.0222528110802966,0.00109594315785348,-0.00651679793500619,0.051772986064454,0.0879349163132614
0.00124850337582708,0.00083408712247676,0.00595578434900053,0.022607730591249,0.00107974173361999,-0.00669028384058968,0.049899271916536,0.0892711572993364
0.00127259251478665,0.000830189634353279,0.00597671990246594,0.0229254760766432,0.00106521964901221,-0.00680532012408859,0.0481001658208952,0.0905499337790915
0.00129535983104479,0.000826581986505463,0.00599215850528856,0.0232068608193315,0.00105233369700806,-0.00687184612371242,0.0463946120316985,0.0917601540778206
0.00131662788565955,0.000823286841589359,0.00600255913467624,0.0234531813236921,0.00104102017363665,-0.00689920980145415,0.0447984353263462,0.0928921475120551
0.00133625363209115,0.000820318600819397,0.00600848818366059,0.0236661587455052,0.00103119779000174,-0.00689604193731458,0.0433241562853034,0.0939379307015152
0.00135413094396375,0.00081768338151758,0.00601058950511777,0.0238478744479514,0.00102277079280262,-0.00687015607420135,0.0419808903739869,0.0948914249830863
0.00137019232336093,0.000815379307047376,0.00600955330643623,0.024000701095946,0.00101563221019572,-0.00682847494380207,0.0407743330466232,0.095748615204579
0.00138440962038317,0.00081339711124259,0.00600608499641686,0.0241272303155517,0.00100966715010854,-0.00677698362261915,0.0397068309961026,0.0965076384176378
0.00139679361495528,0.000811721028534099,0.00600087516843182,0.0242301981474183,0.00100475606105696,-0.00672070915387955,0.0387775373551295,0.0971687928520961
0.00140739237936532,0.00081032990432196,0.00599457200678072,0.0243124100947403,0.00100077783836467,-0.00666372583842641,0.037982646259541,0.0977344631901626
0.00141628843466703,0.000809198436374933,0.0059877574045447,0.0243766681831376,0.000997612658928942,-0.00660918486584509,0.0373156999832866,0.0982089655526193
0.0014235947989812,0.000808298457441584,0.00598092792788463,0.024425702748491,0.00099514446354183,-0.00655936644715359,0.0367679599829558,0.098598321969219
0.00142945006061437,0.000807600189157142,0.00597448148125563,0.0244621113477484,0.000993263057348192,-0.00651575213696173,0.0363288316017432,0.0989099768414538
0.00143401259634293,0.000807073425801653,0.00596871020227515,0.024488306353826,0.000991865839945692,-0.00647911459039369,0.0359863307526326,0.0991524667024134
0.00143745406573068,0.000806688625451131,0.00596379979098125,0.0245064721219722,0.000990859185632518,-0.00644962156155243,0.0357275794643583,0.0993350532660471
0.00143995238851291,0.000806417880744956,0.00595983514513683,0.0245185325058116,0.000990159471750399,-0.00642695050454749,0.035539315566294,0.0994673318193978
0.001441684521089,0.000806235722493957,0.00595681182226417,0.0245261297223169,0.00098969373317444,-0.00641040969662687,0.0354083999201571,0.0995588317147544
0.00144281943359031,0.00080611970922304,0.00595465249241274,0.0245306156678168,0.000989399931676345,-0.00639906137693668,0.0353223026006963,0.0996186304961359
0.00144351171112303,0.000806050783627956,0.00595322719070437,0.0245330563994837,0.000989226861482798,-0.00639184198400144,0.0352695475266796,0.0996550056364587
0.00144389616935914,0.000806013413632147,0.00595237582892249,0.0245342495607792,0.000989133741850118,-0.0063876741707015,0.0352400932817614,0.0996751467150311
0.00144408383920015,0.000805995555797206,0.00595193110323062,0.0245347534487489,0.000989089550779305,-0.00638556486555921,0.0352256261110425,0.0996849474372613
0.00144415966593534,0.000805988469250426,0.00595173965604557,0.0245349255445885,0.000989072127264423,-0.00638468322656432,0.035219739215865,0.0996888941813081
0.00144418226888272,0.000805986386385509,0.00595167910152325,0.0245349675573544,0.000989067038282215,-0.00638441190224029,0.0352179704547976,0.0996900665413533
