APL,FCR,FDS,FDP,ED,EI,ECU,ECR
0.00338443574281861,0.00499769598905063,0.0518398872300634,0.00264950899045307,0.00835036758798079,0.0116781523344596,0.0257884995972942,0.0150788945572552
0.0035220274831215,0.00614365994858119,0.0768994762796475,0.00783314592451594,0.0108533332478801,0.0185407686137676,0.0278489005386378,0.01734052039432
0.00364784674155728,0.00722864013704082,0.100592526391579,0.0127599625278365,0.0133015202296506,0.0251041563599658,0.0298043457146575,0.0195015661559263
0.00376072976373008,0.00824387565162027,0.122726003461723,0.017390651104994,0.0156777332814451,0.031320684488829,0.0316457249279473,0.0215467606253834
0.00385970426368666,0.00918155615488657,0.143128152255869,0.0216900234971705,0.0179657776417976,0.0371478533478134,0.0333663518603225,0.0234625873885593
0.00394401145225016,0.0100349499721544,0.161651354899066,0.0256276155727088,0.020150706239426,0.0425489738053292,0.0349620931120356,0.0252374954623041
0.00401312292817533,0.0107985033477494,0.178174352274799,0.0291781722088904,0.0222190315967863,0.0474936793087027,0.0364314115042612,0.0268620499822284
0.00406675184525104,0.0114679095245265,0.192603793734541,0.032322004853214,0.0241588988468323,0.0519582625569647,0.0377753214169179,0.0283290203900895
0.00410485817486628,0.0120401484410896,0.204875123450509,0.0350452213276731,0.0259602192223194,0.0559258398991512,0.0389972604811831,0.0296334083677362
0.00412764822500813,0.0125134991982625,0.214952838697609,0.037339831784305,0.0276147654178596,0.0593863534077407,0.040102886628904,0.0307724210283623
0.00413556875461602,0.0128875278750216,0.222830164054718,0.0392037359247954,0.0291162309908905,0.0623364225445222,0.0410998113866408,0.0317453960049724
0.00412929600672142,0.0131630530800408,0.228528184443701,0.0406405975107453,0.0304602555503232,0.0647790579933621,0.0419972800200089,0.0325536848222852
0.00410971990047474,0.0133420914062363,0.232094481917957,0.0416596145965833,0.0316444166657553,0.0667232528438404,0.0428058088150982,0.0332005009821215
0.00407792365175745,0.0134277849541408,0.233601329340814,0.0422751970886686,0.0326681890878591,0.0681834703652504,0.0435367906013477,0.0336907400869874
0.00403515926171152,0.0134243131904883,0.233143504829023,0.0425065658246528,0.0335328722035876,0.069179051221363,0.0442020810957095,0.0340307804572009
0.00398281954017831,0.0133367915026029,0.23083580028115,0.0423772884165879,0.0342414875049977,0.0697335647279323,0.0448135799754343,0.0342282733558319
0.00392240752023507,0.0131711588786985,0.226810303005456,0.0419147664020618,0.0347986489966197,0.0698741280891896,0.0453828211918708,0.0342919317166635
0.00385550419508409,0.0129340572167248,0.221213530131333,0.0411496867446061,0.0352104105816248,0.0696307149082205,0.0459205866526519,0.0342313251371919
0.0037837354412889,0.0126327048481462,0.214203490739641,0.0401154496666468,0.0354840951212256,0.0690354710516837,0.0464365560329823,0.0340566871270032
0.00370873884894857,0.0122747668999284,0.205946741238108,0.0388475843310736,0.0356281096187629,0.0681220532451,0.0469390033309166,0.0337787386233201
0.00363213108069018,0.0118682249843668,0.196615488529977,0.0373831635067593,0.0356517499244568,0.0669250035807579,0.0474345482006089,0.0334085299932948
0.00355547636407949,0.0114212483180051,0.186384786652413,0.0357602276139414,0.0355649975433194,0.0654791711051046,0.0479279674306826,0.0329573023265881
0.00348025674614901,0.010942067915414,0.175429866572959,0.034017227224236,0.0353783113869731,0.0638191895715533,0.0484220693358709,0.0324363676805553
0.00340784475091135,0.0104388553074329,0.163923634654782,0.0321924912544888,0.0351024183818275,0.0619790181959981,0.0489176313855734,0.0318570067397374
0.003339479034178,0.00991960733185879,0.152034371679494,0.0303237261851125,0.0347481079247053,0.0599915498671108,0.0494133992844,0.0312303809402082
0.00327624350858696,0.00939203874094657,0.139923660277912,0.0284475501081111,0.0343260354309878,0.0578882888134803,0.0499061441708806,0.0305674550643039
0.00321905026865816,0.00886348445381788,0.127744563598573,0.0265990643633496,0.0338465393767189,0.0556990971828464,0.0503907737184348,0.0298789263035393
0.00316862654861058,0.00834081312849992,0.115640071905804,0.0248114648691693,0.0333194751169215,0.0534520071710382,0.0508604925596638,0.0291751567580963
0.00312550588933358,0.00783035334879022,0.103741826737271,0.0231156948658014,0.0327540682417901,0.0511730924146081,0.0513070071406453,0.0284661076707055
0.0030900236318128,0.00733783327585382,0.092169124679721,0.0215401404809137,0.0321587901174125,0.0488863902781803,0.0517207691793637,0.0277612745424123
0.0030623167572299,0.00686833425328478,0.0810281954273156,0.0201103700577267,0.0315412579141093,0.0466138661956449,0.0520912501375834,0.0270696221088827
0.0030423279537843,0.00642625857389984,0.0704117423641284,0.0188489173805618,0.0309081604474086,0.0443754122449124,0.0524072376068343,0.0263995176048312
0.00302981365047908,0.00601531134704744,0.0603987288579705,0.0177751080159591,0.0302652098211129,0.0421888738680049,0.0526571444536252,0.0257586610807679
0.00302435566993094,0.00563849609189528,0.0510543898519943,0.0169049275194095,0.0296171179258659,0.0400700999537004,0.052829322852503,0.0251540129447299
0.00302537612130926,0.00529812333830285,0.042430446193828,0.0162509304064875,0.0289675965291138,0.0380330114328683,0.0529123770194573,0.0245917206580921
0.00303215514989455,0.00499583122010219,0.0345654983289258,0.0158221892719007,0.02831937959742,0.0360896825060862,0.0528954693865029,0.024077047773067
0.00304385113109507,0.00473261681264893,0.0274855761851238,0.0156242838672508,0.0276742660753025,0.0342504284236826,0.0527686143240922,0.0236143087058896
0.00305952281052964,0.00450887673906394,0.0212048227716973,0.0156593299991686,0.0270331803977588,0.0325238951173432,0.0525229520098782,0.0232068120391432
0.00307815279811231,0.0043244553339219,0.0157262895795563,0.0159260476846885,0.0263962471686062,0.0309171482068719,0.0521509946178451,0.0228568147133064
0.00309867180756467,0.00417869850116765,0.0110428217795266,0.0164198673726413,0.0257628764132133,0.0294357610014672,0.0516468384149382,0.0225654895904065
0.00311998309896233,0.00407051140926766,0.00713801068819397,0.0171330725968849,0.0251318565303988,0.0280839024393625,0.0510063378716481,0.0223329091314473
0.00314098667838878,0.00399841831515767,0.00398719120316433,0.018054977209112,0.0245014529883316,0.0268644262519987,0.05022724032861,0.0221580478326595
0.00316060287221696,0.00396062302993302,0.00155846359550701,0.0191721351312476,0.0238695113381203,0.0257789620879982,0.0493092809309555,0.0220388053924428
0.00317779487313596,0.00395506872744097,-0.000186278217628731,0.0204685801289929,0.02323356286774,0.0248280081802527,0.0482542369100348,0.0219720514536198
0.00319158976783977,0.00397949584920539,-0.00129032676259059,0.0219260924212633,0.0225909305134786,0.0240110240355614,0.0470659391281969,0.0219536915051139
0.00320109751535137,0.00403149682175336,-0.0018011616091822,0.0235244883614599,0.0219388324214873,0.0233265212511904,0.0457502391377874,0.021978752448034
0.00320552742586963,0.00410856640047306,-0.00176948064270369,0.0252419291962875,0.0212744811523353,0.0227721510833439,0.0443149321128952,0.0220414856645841
0.00320420186203509,0.0042081467971226,-0.00124827097500139,0.0270552448377652,0.0205951775640462,0.0223447885472367,0.0427696388086731,0.0221354851352036
0.00319656706426914,0.00432766724248199,-0.000291927824416237,0.0289402682696055,0.0198983993515655,0.0220406141122561,0.0411256518693834,0.0222538178916484
0.00318220109668928,0.00446457810399362,0.00104457096955841,0.0308721754610211,0.0191818846256228,0.0218551949001496,0.03939575235058,0.0223891635190514
0.00316081888217403,0.0046163799445077,0.00270642827202484,0.0328258250312135,0.018443710598717,0.0217835673182642,0.0375940013571404,0.0225339587747866
0.00313227424591228,0.00478064793516437,0.00463972392041433,0.0347760920932818,0.0176823667129909,0.0218203223055985,0.0357355108163382,0.0226805433732073
0.00309655894606428,0.00495505203105559,0.00679204091068597,0.0366981916875575,0.0168968210471809,0.0219596932714688,0.0338361977254792,0.0228213037208293
0.00305379882922767,0.00513737344626658,0.00911302021540321,0.0385679884192547,0.0160865788775625,0.0221956456689569,0.0319125273360338,0.0229488123870254
0.00300424741563621,0.00532551813002951,0.0115548441109671,0.0403622895382298,0.0152517327186611,0.0225219661170675,0.0299812518167841,0.0230559616955944
0.00294827730171038,0.00551752798569338,0.0140726483626727,0.042059118213325,0.0143930037557383,0.0229323482184898,0.0280591513242983,0.0231360896272674
0.00288636973070439,0.005711590440925,0.0166248639312455,0.0436379628820529,0.0135117749426968,0.0234204715259559,0.0261627838194178,0.0231830957157763
0.00281910261049688,0.00590604678147336,0.0191734894524629,0.0450799987024389,0.0126101159134368,0.0239800693724537,0.0243082487230749,0.0231915446959938
0.00274713726010586,0.00609939948406811,0.0216842962786126,0.0463682785509639,0.0116907994987971,0.0246049811258864,0.0225109684006066,0.0231567563880487
0.00267120423773901,0.00629031857914888,0.024126967903094,0.0474878929415335,0.0107573096319428,0.0252891854596854,0.0207854908399918,0.0230748810874724
0.00259208867397542,0.00647764682602634,0.0264751754369222,0.0484260996766628,0.00981384079792617,0.0260268131952801,0.019145316486546,0.0229429599486259
0.00251061554102989,0.00666040330298654,0.0287065912544182,0.0491724241294413,0.00886528953467033,0.0268121402822828,0.0176027516816492,0.0227589693741325
0.00242763521728516,0.00683778499886717,0.0308028440056821,0.0497187298076901,0.00791723849498529,0.0276395625312182,0.0161687903465257,0.0225218480384872
0.00234400961957746,0.0070091661243553,0.0327494192117447,0.0500592577366021,0.00697593330181787,0.028503553676091,0.0148530245466764,0.0222315055615785
0.00226059914278092,0.00717409504644614,0.0345355098419055,0.0501906334865396,0.00604825226035209,0.0293986085411225,0.0136635836509751,0.0218888127594734
0.0021782506585497,0.00733228885295159,0.0361538206817096,0.0501118421846547,0.00514166906482136,0.0303191743776244,0.012607101031431,0.0214955741324268
0.00209778683804325,0.00748362546609507,0.0376003301322244,0.0498241736954525,0.00426420878324423,0.0312595752024589,0.0116887065007138,0.0210544832505615
0.00201999703877113,0.00762813301709361,0.0388740140413704,0.049331141315626,0.00342439744240946,0.0322139351612339,0.0109120419826851,0.0205690613269699
0.00194562991950203,0.00776597611954353,0.0399765378332776,0.0486383770163216,0.00263120541041576,0.0331761069051941,0.0102792974731469,0.0200435795301053
0.00187538784245795,0.0078974388563667,0.0409119247570949,0.047753504770315,0.00189398459658246,0.0341396100682051,0.00979126424885246,0.0194829666399034
0.00180992302510084,0.00802290464859477,0.0416862087571889,0.0466859924857823,0.0012223994076363,0.0350975841743172,0.00944740241194616,0.0188927048299604
0.00174983532578633,0.00814283356843218,0.042307079854053,0.0454469835430052,0.000626351413644773,0.0360427599423515,0.00924592001921327,0.0182787169442221
0.00169567148978457,0.00825773795975816,0.0427835284871211,0.0440491104324263,0.000115897710229492,0.0369674525529466,0.00918386102552901,0.017647248404517
0.00164792565249604,0.00836815733732689,0.0431254942044029,0.042506294557676,-0.0002988370353107,0.0378635796970069,0.00925719907679876,0.0170047464468802
0.00160704089835597,0.00847463340641305,0.0433435239235022,0.0408335369793679,-0.000607754892252577,0.0387227061231398,0.00946093421976998,0.0163577393960989
0.00157341169179278,0.0085776857281234,0.0434484454652412,0.0390467042186053,-0.000800885380060779,0.0395361150624149,0.00978919010751793,0.0157127190342771
0.00154738699777359,0.00867778824369696,0.0434510627189517,0.0371623117853588,-0.000868492611927696,0.0402949053358576,0.0102353100674844,0.0150760293736445
0.00152927387302993,0.00877534674352554,0.0433618791863786,0.0351973072714484,-0.000801188789880175,0.0409901111444663,0.0107919510671516,0.0144537649985603
0.00151934127013828,0.00887067746022388,0.0431908563773258,0.0331688551673946,-0.000590053758581648,0.0416128400104342,0.0114511748410569,0.0138516815662163
0.00151782380350133,0.0089639872280503,0.0429472123504078,0.0310941264871091,-0.000226760016507715,0.0421544237396745,0.012204535336275,0.0132751203281221
0.00152492527147441,0.00905535597722199,0.0426392637505077,0.0289900970608153,0.000296297761585686,0.0426065776396367,0.0130431617120318,0.0127289478589878
0.0015408217736196,0.00914472257727465,0.0422743126776638,0.0268733583875914,0.000985869952980543,0.0429615639966173,0.0139578365944287,0.0122175114922499
0.001565664270263,0.00923187506730886,0.0418585781541473,0.0247599440605658,0.00184771746905366,0.0432123561469509,0.0149390698485854,0.0117446103015249
0.00159958039660537,0.00931644607066961,0.041397170785369,0.0226651735894162,0.00288647714107735,0.0433527987397356,0.0159771683672905,0.0113134809560285
0.00164267531346316,0.00939791387254256,0.040894108242713,0.0206035147306351,0.00410552871371572,0.0433777586392082,0.0170623021862427,0.0109267973322254
0.00169503140048651,0.00947560946404266,0.0403523683501401,0.018588465256148,0.00550686513492394,0.0432832609165563,0.0181845671282007,0.0105866822614142
0.00175670666891417,0.00954872980351196,0.0397739758710399,0.0166324551078929,0.00709096781843174,0.0430666059271949,0.0193340445146777,0.010294729380471
0.00182773184653829,0.00961635745103998,0.0391601186453265,0.0147467697951861,0.00885668864167339,0.0427264656926376,0.0205008589670662,0.0100520329595687
0.00190810611724576,0.00967748646217332,0.038511288508531,0.0129414954965558,0.0108011407073576,0.0422629594711708,0.0216752354255936,0.00985922377891944
0.00199779147756401,0.00973105403157237,0.0378274422432554,0.0112254856288335,0.0129196003667801,0.0416777085593192,0.0228475560946145,0.00971650940170744
0.00209670568373505,0.00977597703744871,0.0371081772890648,0.0096063479620878,0.0152054235943545,0.0409738693212686,0.024008417634389,0.00962371728808577
0.00220471386475406,0.00981119235610391,0.0363529157571863,0.00809045098344351,0.0176499802938213,0.0401561428765071,0.0251486890003449,0.00958033901156568
0.00232161904057536,0.00983569946773971,0.0355610889459462,0.00668294807933637,0.0202426102199873,0.0392307606627211,0.0262595706047608,0.00958557365988098
0.0024471519384989,0.0098486035361307,0.0347323141748886,0.00538781800002783,0.0229706038974737,0.0382054466703147,0.0273326553930932,0.00963836868808826
0.00258096057291096,0.00984915707301134,0.0338665567842916,0.00420791984182327,0.0258192116625128,0.0370893585949821,0.0283599917587481,0.00973745701684101
0.00272260003013786,0.00983679855934595,0.0329642721764849,0.00314506047091414,0.0287716839995487,0.0358930107259027,0.0293341475262628,0.00988138974544976
0.00287152286869193,0.00981118682156905,0.0320265250567957,0.00220007210368003,0.03180934639655,0.0346281807374026,0.0302482740968876,0.010068564146592
0.00302707058159938,0.00977223028313469,0.0310550847341959,0.00137289770429447,0.0349117115374516,0.0333078011151856,0.031096170044112,0.0102972465392692
0.00318846665040314,0.00972011021133137,0.0300524958079398,0.000662681875638017,0.0380566306318848,0.0319458348178849,0.0318723433376387,0.0105655896015351
0.00335481179440883,0.00965529686240867,0.0290221229121839,6.78649340994452e-05,0.0412204844401291,0.0305571345484794,0.0325720705941263,0.0108716440381575
0.00352508204019285,0.00957855741590063,0.0279681676919858,-0.000413722139874158,0.0443784133068658,0.0291572855740289,0.033191450856188,0.0112133651072034
0.00369813018282997,0.00949095496333278,0.0268956568224211,-0.000784764169363035,0.0475045840039648,0.0277624330213455,0.0337274512657797,0.0115886149631731
0.00387269108207879,0.00939383842841852,0.0258104014497909,-0.00104837190269158,0.050572489537946,0.0263890954727619,0.0341779426596793,0.0119951618177172
0.00404739106582949,0.00928882391988192,0.0247189302845574,-0.00120799792247522,0.0535552769839177,0.0250539669125517,0.0345417239874262,0.0124306766799689
0.00422076154169929,0.00917776846627011,0.0236284000920367,-0.00126736035809868,0.0564260980389837,0.023773708488266,0.0348185348138405,0.0128927283651877
0.00439125674648303,0.00906273723804585,0.022546488056517,-0.0012303762709126,0.0591584767869045,0.0225647310507328,0.0350090545746242,0.0133787776660126
0.00455727536901151,0.00894596519865745,0.0214812702604207,-0.00110110629505085,0.0617266882798227,0.0214429699421803,0.0351148862741875,0.0138861717827549
0.00471718557679793,0.0088298137857796,0.0204410896700528,-0.000883711625041934,0.0641061396818206,0.020423654815185,0.035138522193421,0.0144121400011813
0.00486935279153559,0.00871672299981603,0.0194344163322823,-0.000582423813343639,0.0662737440870155,0.0195210785818663,0.0350832902937945,0.0149537912541534
0.00501216937409375,0.00860915932550755,0.0184697023314385,-0.00020152724796353,0.0682082770752736,0.0187483701519939,0.0349532818442351,0.0155081140394687
0.0051440851863091,0.00850956020135687,0.0175552342869493,0.000254646227439008,0.069890707590189,0.018117275317223,0.0347532625324152,0.0160719792980166
0.00526363788745632,0.00842027617505897,0.0166989865530898,0.000781711405027908,0.0713044969360991,0.0176379497655869,0.0344885701302065,0.0166421469586004
0.00536948188388246,0.00834351230334537,0.0159084785970008,0.0013752138125083,0.0724358613821504,0.0173187682585923,0.0341650013155217,0.0172152766037697
0.00546041504886184,0.00828127062282471,0.015190640076683,0.00203060564584321,0.0732739938453298,0.0171661541346127,0.0337886893665578,0.0177879422410573
0.00553540254463863,0.00823529551774901,0.0145516867754584,0.00274321576682385,0.0738112383144034,0.0171844331262738,0.0333659744264536,0.018356650966156
0.00559359716174463,0.00820702355452273,0.0139970098916747,0.00350821617214641,0.0740432093185245,0.0173757149541984,0.0329032690215587,0.0189178654926074
0.00563435550692649,0.00819753905340814,0.0135310806066076,0.00432058736040823,0.0739688500714407,0.0177398055139761,0.0324069228725049,0.0194680308216872
0.00565724932588481,0.00820753650090814,0.013157371471331,0.00517508498247509,0.0735904267688384,0.018274151946476,0.0318830921133818,0.020003605409472
0.00566207143356854,0.00823729084951298,0.0128782957423984,0.00606621004580319,0.0729134612073147,0.018973822482809,0.0313376184030373,0.0205210968314733
0.00564883610261192,0.00828663672486581,0.0126951652569784,0.00698818475553413,0.071946607289989,0.0198315224591009,0.0307759229159092,0.021017101213705
0.00561777417456574,0.00835495750165132,0.0126081670150087,0.0079349358582402,0.0707014774836773,0.0208376472463351,0.0302029189492589,0.0214883450555935
0.00556932344498389,0.00844118507118242,0.0126163584511508,0.0089000871690663,0.0691924236853754,0.0219803724164385,0.0296229453511029,0.0219317278886471
0.00550411492270061,0.00854381087181118,0.0127176811889442,0.0098769628228682,0.067436276354972,0.0232457814185847,0.0290397217205825,0.0223443644739302
0.00542295543688541,0.00866090837969718,0.0129089926998938,0.0108586026149356,0.0654520474922347,0.0246180309948333,0.0284563255120268,0.0227236256947553
0.00532680699951996,0.00879016679664098,0.0131861150151677,0.0118377904863873,0.0632606058917163,0.0260795540809794,0.0278751906570006,0.023067177583152
0.00521676344367106,0.00892893519950715,0.0135438997285099,0.0128070967772046,0.0608843354977988,0.0276112989668493,0.0272981269432081,0.0233730176755724
0.0050940250740378,0.00907427602013014,0.0139763088156069,0.0137589343985871,0.0583467884916146,0.0291930023178727,0.026726359048145,0.0236395072372223
0.00495987226705163,0.00922302645646826,0.0144765109315401,0.0146856285380636,0.0556723435837955,0.0308034923996363,0.0261605837938565,0.0238653975851794
0.00481563905128398,0.00937186624452654,0.0150369926021094,0.0155794988940592,0.0528858773780532,0.0324210176356986,0.0256010438987352,0.0240498491906855
0.00466268764160278,0.0095173900271309,0.0156496831110667,0.0164329528017619,0.0500124539349496,0.0340235945584527,0.0250476162608442,0.0241924430778275
0.00450238471037734,0.00965618225161501,0.0163060911052422,0.0172385869422595,0.0470770356768687,0.0355893680456037,0.0244999125266368,0.0242931845588671
0.00433607994544825,0.00978489228155979,0.0169974502061343,0.0179892947407116,0.0441042175004724,0.0370969756804328,0.0239573891829342,0.0243524991079477
0.00416508725376678,0.00990030747693826,0.0177148703779511,0.0186783763325507,0.0411179852103175,0.0385259078939614,0.0234194635116877,0.0243712197172807
0.00399066883284871,0.00999942239278232,0.0184494914197864,0.0192996481447519,0.0381414990549042,0.0398568563121075,0.0228856307780097,0.0243505653210407
0.0038140222310194,0.0100795027815225,0.0191926344942878,0.0198475494066238,0.035196903115492,0.0410720435634794,0.0223555776162018,0.0242921107460193
0.00363627043890671,0.0101381435065999,0.0199359470129183,0.0203172428395823,0.032305161322857,0.042155527693932,0.021829286954332,0.024197749400655
0.00345845499172018,0.0101733195681403,0.0206715359437886,0.0207047063453036,0.029485920589844,0.0430934736771367,0.0213071307761624,0.0240696499002162
0.00328153200880138,0.0101834292263082,0.0213920851708149,0.0210068124196052,0.0267574006264702,0.0438743850159549,0.0207899482180058,0.0239102072829218
0.00310637104474499,0.0101673280703763,0.0220909538429171,0.0212213927432122,0.0241363086434965,0.044489290522322,0.0202791075677749,0.0237219893848742
0.00293375655945833,0.0101243531161352,0.0227622541971213,0.0213472866455702,0.0216377762164653,0.0449318838549662,0.0197765513279466,0.0235076795936615
0.0027643917126349,0.0100543365491603,0.0234009083979391,0.0213843732784729,0.0192753155790145,0.0451986147261097,0.0192848233941044,0.0232700180290795
0.00259890405203095,0.00995760934380866,0.0240026840483426,0.0213335877952771,0.0170607932975565,0.0452887303581253,0.0188070768589531,0.0230117435252469
0.00243785255462959,0.00983499544355656,0.0245642077965365,0.0211969214779812,0.0150044201647971,0.0452042655226317,0.018347060825181,0.0227355383422686
0.00228173546110609,0.00968779730605527,0.0250829570026636,0.0209774052605057,0.0131147567925534,0.0449499810020372,0.017909085343277,0.0224439768887116
0.00213099841956085,0.00951777339060182,0.0255572308726337,0.0206790761924168,0.011398734500185,0.0445332529776924,0.0174979649285068,0.0221394796070991
0.00198604257958639,0.00932710790107118,0.0259861041806055,0.0203069270794456,0.00986169068660031,0.043963918026684,0.0171189425340562,0.0218242734922935
0.00184723238579088,0.00911837309799716,0.0263693679658504,0.0198668404885574,0.00850741735145093,0.0432540788307857,0.0167775968342652,0.0215003609768457
0.00171490285174012,0.00889448475185455,0.0267074618868731,0.0193655091581,0.007338221211679,0.042417874783479,0.0164797358658267,0.0211694986868939
0.00158936606504227,0.00865865166825298,0.0270014022816362,0.018810345296969,0.00635499393024862,0.041471221349644,0.016231279698444,0.0208331868422422
0.0014709166824635,0.00841432050943351,0.0272527091888654,0.0182093810892441,0.0055572911418069,0.0404315230038748,0.0160381346039246,0.0204926694124658
0.00135983626697734,0.00816511723298438,0.0274633351686222,0.0175711620673651,0.00494341907854677,0.0393173659742843,0.0159060614855129,0.0201489448956478
0.0012563964480782,0.00791478630609383,0.0276355984223778,0.0169046344548549,0.00451052759336999,0.0381481977510228,0.0158405417874999,0.0198027874971417
0.00116086098423352,0.0076671285438813,0.0277721219696969,0.0162190275194622,0.00425470822982226,0.0369439997670514,0.0158466442613378,0.0194547781360587
0.00107348683181805,0.00742593823018472,0.0278757794786434,0.0155237323308301,0.0041710957643335,0.0357249583381619,0.0159288956286128,0.0191053440072705
0.000994524303013077,0.00719494023103405,0.0279496471862716,0.0148281788150542,0.00425397148072172,0.0345111381800024,0.0160911577275819,0.0187548048526211
0.000924216391170141,0.00697772802408706,0.0279969602221636,0.0141417133892867,0.0044968663849341,0.0333221630358893,0.0163365135518195,0.0184034240096834
0.000862797369836412,0.00677770378819552,0.0280210706273249,0.0134734795662667,0.00489266257152457,0.0321769085888355,0.0166671645147981,0.01805146249249
0.000810490798148281,0.006598021773085,0.0280254041278018,0.0128323036584359,0.00543369091885058,0.0310932131179332,0.017084340950318,0.0176992343676792
0.000767507063100463,0.00644153602651211,0.0280134135875465,0.0122265871429957,0.00611182318172226,0.0300876107704859,0.0175882273363917,0.0173471612652449
0.000734040562191016,0.00631075331340944,0.027988528495836,0.0116642066586509,0.00691855650659364,0.0291750912181196,0.0181779034839482,0.0169958233783988
0.000710266606211542,0.00620779191830902,0.0279541009016221,0.011152422283987,0.00784508860221566,0.0283688888431313,0.018851303128981,0.0166460043668604
0.00069633810796964,0.00613434700682876,0.0279133482286347,0.0106977947278195,0.00888238230170975,0.0276803046656436,0.0196051917280952,0.0162987282019749
0.000692382103662339,0.00609166325037037,0.0278692929949679,0.0103061122022581,0.0100212189594057,0.0271185644005276,0.0204351653860699,0.0159552867504723
0.000698496134103011,0.00608051541543426,0.0278246999304834,0.00998232783083296,0.0112522408467805,0.0266907157300234,0.0213356724689669,0.015617257271889
0.00071474451497575,0.00610119753525885,0.0277820124909795,0.00973050827424959,0.0125659831973168,0.0264015669128886,0.0223000587058882,0.0152865088202225
0.000741154547282944,0.00615352108797557,0.0277432924905121,0.00955379391083238,0.013952896613033,0.0262536676767119,0.0233206358758864,0.0149651963753624
0.000777712736651803,0.00623682232573406,0.0277101676344532,0.00945437066628419,0.0154033603417504,0.0262473324192915,0.024388773602788,0.0146557420083933
0.000824361085993244,0.0063499786312266,0.0276837916657197,0.00943345343053448,0.0169076869308731,0.0263807049397276,0.0254950131301486,0.0143608033493207
0.000880993519499562,0.00649143358878668,0.0276648207880933,0.00949128074830122,0.0184561191685275,0.0266498629016157,0.0266292011008227,0.0140832304991739
0.000947452513318028,0.00665923033012773,0.0276534085732939,0.00962712028120076,0.0200388209192274,0.0270489590105512,0.0277806404245151,0.0138260128153213
0.00102352603751232,0.00685105260467627,0.0276492200091788,0.0098392846546544,0.0216458642444163,0.0275703948583411,0.028938254552383,0.0135922168205298
0.00110894492444029,0.00706427288119252,0.0276514637479151,0.0101251575842353,0.0232672158638959,0.0282050226649025,0.0300907611419114,0.0133849165622792
0.00120338075959045,0.00729600656240831,0.0276589400669277,0.0104812302944716,0.0248927263855487,0.0289423694003539,0.0312268512018191,0.0132071183129309
0.00130644436585742,0.00754317110219547,0.0276701008386197,0.0109031480553524,0.0265121256731936,0.0297708767560362,0.0323353700212567,0.0130616821422414
0.00141768493302917,0.00780254858373935,0.0276831172993126,0.0113857664231401,0.0281150271556896,0.0306781496428465,0.0334054959542474,0.0129512431585423
0.00153658981326619,0.00807085023585394,0.0276959517349679,0.0119232167444495,0.0296909428533042,0.0316512060042173,0.0344269122673961,0.0128781349596711
0.00166258496368574,0.00834478136720164,0.0277064301287717,0.0125089805968262,0.0312293097546703,0.0326767216788372,0.0353899665994742,0.012844317360314
0.0017950359992621,0.00862110512635094,0.0277123138311784,0.0131359729321342,0.0327195273686905,0.0337412651414326,0.0362858130074999,0.0128513101231059
0.00193324982305877,0.00889670330045083,0.0277113687736907,0.0137966336791916,0.0341510059858025,0.0348315173054683,0.0371065330236112,0.012900134231375
0.00207647678994171,0.00916863230322541,0.0277014303388731,0.0144830274499044,0.0355132253614227,0.0359344710451365,0.0378452339888908,0.0129912621125715
0.00222391332102852,0.00943417279153675,0.0276804614612512,0.0151869508028749,0.0367958039819382,0.037037604988118,0.0384961243374084,0.0131245781238657
0.00237470487536188,0.00969087184932311,0.0276466019153499,0.0159000462484711,0.0379885794970826,0.0381290275165343,0.0390545657374325,0.0132993505227289
0.0025279492449137,0.00993657704524429,0.0275982080270087,0.0166139217845801,0.0390817009962604,0.0391975894189346,0.0395171011453894,0.0135142159774727
0.0026827002304752,0.0101694616866468,0.0275338834653071,0.017320274170577,0.040065733319561,0.0402329661443537,0.0398814572972978,0.0137671773017031
0.00283797180220135,0.0103880405512671,0.0274525024994807,0.0180110134669222,0.0409317723833613,0.0412257119073252,0.0401465210174168,0.0140556145889291
0.00299274281549442,0.0105911757249652,0.0273532267841993,0.0186783859152123,0.0416715687594342,0.0421672876182347,0.0403122906669365,0.0143763095955207
0.00314596231771534,0.0107780728588874,0.0272355161039437,0.0193150922462675,0.0422776551960391,0.0430500642613207,0.0403798061707048,0.0147254831958175
0.00329655551991132,0.0109482688235344,0.0270991335271462,0.019914398958784,0.0427434730380087,0.0438673044353141,0.0403510623488642,0.0150988458119536
0.00344343058459944,0.0111016120382924,0.0269441459865409,0.0204702407931442,0.0430634927294127,0.0446131269607427,0.0402289100984789,0.0154916605999499
0.0035854864102768,0.0112382366173494,0.0267709217118596,0.0209773131935387,0.0432333245935268,0.0452824614963843,0.0400169488790313,0.0158988187230182
0.00372162152853453,0.0113585312686511,0.0265801256341115,0.0214311536449093,0.043249817413623,0.0458710008527773,0.0397194134728132,0.0163149255327124
0.00385074413398563,0.011463103973677,0.0263727130432704,0.0218282102843896,0.0431111432374523,0.0463751578092391,0.0393410585800287,0.0167343961721306
0.00397178322586744,0.0115527437910398,0.0261499212898694,0.0221658956493677,0.0428168665633556,0.0467920317961035,0.0388870457511312,0.017151558857697
0.00408370082614342,0.0116283814022252,0.0259132594939946,0.0224426234880156,0.0423679949261295,0.0471193899108207,0.0383628375683878,0.0175607636217763
0.00418550517206573,0.011691050015703,0.0256644965622828,0.0226578272785846,0.0417670074984768,0.0473556660855663,0.037774103314833,0.0179564937251271
0.00427626464687517,0.0117418479218578,0.0254056476580573,0.0228119601535523,0.0410178594897605,0.0474999809861051,0.0371266388780495,0.0183334767010278
0.00435512210511571,0.0117819036327639,0.0251389585968109,0.0229064768617862,0.0401259621968785,0.0475521831955539,0.0364263023229655,0.0186867921465925
0.00442130923173856,0.0118123444118272,0.0248668873275488,0.0229437987781238,0.0390981403721727,0.0475129100438127,0.0356789658597065,0.0190119735905365
0.00447416060101582,0.01183426901911,0.0245920821431671,0.022927262597544,0.0379425691055513,0.0473836643550423,0.0348904844254448,0.0193051016231651
0.00451312708192919,0.0118487254356661,0.0243173569754536,0.0228610528038746,0.0366686915862662,0.047166901203314,0.0340666802316229,0.0195628850446805
0.00453778812410979,0.0118566940216194,0.024045664284142,0.0227501181321232,0.0352871183104358,0.0468661170613048,0.033213341245689,0.0197827268064522
0.00454786235297134,0.0118590761378943,0.0237800655458514,0.0226000731433362,0.0338095087113793,0.0464859333165812,0.032336230372183,0.0199627723623189
0.00454321594315275,0.0118566880349847,0.0235236990915883,0.0224170872267505,0.0322484374760592,0.0460321669367645,0.0314411017564011,0.0201019393393605
0.00452386842024819,0.0118502598337038,0.0232797455193423,0.0222077642355479,0.0306172490015629,0.0455118822587668,0.0305337209418627,0.0201999284886447
0.00448999575082686,0.0118404394786447,0.0230513915528075,0.0219790160793215,0.0289299036888128,0.0449334183274347,0.0296198858268908,0.020257216127232
0.00444193068568348,0.0118278013880946,0.0228417932715208,0.0217379330368086,0.0272008189967754,0.0443063854335431,0.0287054448752698,0.0202750280007478
0.00438016026905796,0.0118128591622983,0.0226540391357778,0.0214916531259223,0.0254447074705589,0.0436416239740652,0.0277963083212405,0.0202552946768213
0.00430532036668156,0.0117960814984638,0.0224911130624887,0.0212472330450387,0.0236764141000961,0.0429511203175286,0.026898448397417,0.0202005895533221
0.00421818717029062,0.0117779105546687,0.0223558582614422,0.0210115236976298,0.0219107559826191,0.0422478778713173,0.0260178861196607,0.0201140518525808
0.00411966587635173,0.0117587821661074,0.0222509430146371,0.0207910536758451,0.0201623676449465,0.0415457455537995,0.0251606640551972,0.0199992979596106
0.00401077697750047,0.0117391472331941,0.0221788294531758,0.0205919240132032,0.0184455550927498,0.0408592086666735,0.0243328057192197,0.0198603247191582
0.00389264072491779,0.0117194933000212,0.022141745717568,0.0204197169575117,0.0167741608138497,0.0402031477519275,0.0235402622890731,0.0197014078221858
0.00376646027106685,0.0117003652358009,0.0221416613797641,0.0202794205693307,0.0151614411853833,0.0395925704303541,0.0227888470779013,0.0195269977545602
0.0036335038662735,0.0116823841562628,0.0221802659391335,0.0201753698008161,0.0136199573390746,0.0390423215926883,0.0220841588302996,0.0193416154888378
0.00349508639661203,0.0116662639837278,0.0222589503198512,0.0201112035722853,0.0121614803674415,0.0385667790253716,0.0214314961955616,0.0191497501589406
0.00335255054687672,0.0116528250128028,0.0223787913555091,0.0200898364537056,0.0107969116087395,0.038179543577568,0.0208357667982653,0.0189557611385736
0.00320724791030732,0.0116430035835254,0.022540539172762,0.0201134430524206,0.00953621853833327,0.0378931343288538,0.0203013945053098,0.0187637870532275
0.00306052040742041,0.0116378569270608,0.0227446071600908,0.0201834532094264,0.00838838649824353,0.0377186993799082,0.0198322279679139,0.0185776641634779
0.00291368239517221,0.0116385626169316,0.0229910637328969,0.0203005565421467,0.00736138611129128,0.0376657518365026,0.0194314531280947,0.0184008561811698
0.00276800382868637,0.0116464125931872,0.0232796243283767,0.0204647154279696,0.00646215575714708,0.0377419387613251,0.0191015123239885,0.0182363968852232
0.00262469476913837,0.0116628020971677,0.0236096414507708,0.0206751857284468,0.00569659801941788,0.0379528490539834,0.0188440324261069,0.0180868460337423
0.00248489141314312,0.0116892138298029,0.0239800908243974,0.0209305441869327,0.00506958867229263,0.038301864732759,0.0186597638493809,0.017954258378306
0.00234964369037789,0.01172719732745,0.0243895528680139,0.0212287210544071,0.00458499656054066,0.0387900588779565,0.0185485317568393,0.0178401652753409
0.0022199043988094,0.0117783433680765,0.0248361902616084,0.0215670367933521,0.00424571253567824,0.039416142371024,0.0185092006958285,0.0177455683836909
0.0020965198423783,0.0118442533975422,0.0253177235667723,0.0219422425747334,0.00405368537617043,0.0401764602311311,0.0185396540894634,0.0176709450249558
0.00198022198726715,0.0119265043862025,0.0258314070804413,0.0223505651723352,0.0040099623758411,0.0410650366433239,0.0186367900361276,0.0176162646922994
0.00187162222438823,0.0120266099925981,0.0263740066358859,0.0227877572423855,0.00411473207615036,0.0420736661208133,0.01879653446855,0.0175810157320621
0.0017712068741136,0.0121459792414281,0.0269417809947236,0.0232491536060793,0.00436736649457205,0.0431920471373686,0.0190138720247998,0.0175642406093574
0.00167933455994566,0.0122858739676166,0.0275304691450234,0.0237297333579746,0.0047664603116007,0.0444079537120578,0.0192828944833961,0.017564577908487
0.00159623551532846,0.0124473659834128,0.0281352866652152,0.0242241870510809,0.00530986491508284,0.0457074391810388,0.0195968665421118,0.0175803094011893
0.00152201282429894,0.0126312945142948,0.0287509346266016,0.024726988064863,0.00599471590025023,0.0470750649452648,0.0199483089148381,0.0176094107812574
0.00145664556368503,0.0128382242893093,0.029371623941503,0.0252324673970261,0.00681745340559966,0.0484941465346176,0.0203290988903254,0.0176496045788188
0.00139999379752931,0.0130684048590363,0.0299911170284311,0.0257348913512583,0.00777383529049092,0.0499470103631952,0.020730588353175,0.0176984133566223
0.00135180535471166,0.0133217321124781,0.0306027877801756,0.0262285417334704,0.00885894343552994,0.0514152563990032,0.0211437386507677,0.0177532112139911
0.00131172429267238,0.0135977133680581,0.0311996999592582,0.0267077979956797,0.0100671834327865,0.0528800234783593,0.0215592706840062,0.0178112721967412
0.00127930091709143,0.0138954376142677,0.0317747029928427,0.027167220086688,0.0113922780102919,0.0543222541013958,0.0219678274585452,0.017869815025379
0.00125400319508399,0.0142135523159094,0.0323205430788089,0.0276016297843492,0.0128272549516556,0.0557229542559672,0.0223601453142714,0.0179260439844746
0.00123522937144099,0.0145502477338696,0.0328299870702117,0.0280061877072226,0.0143644309773536,0.0570634428329856,0.0227272293713712,0.0179771856202712
0.00122232157396065,0.0149032492844681,0.0332959565823587,0.0283764634514238,0.0159953938905171,0.0583255859111126,0.0230605283243559,0.0180205206801969
0.00121458017172455,0.0152698183503834,0.0337116695274011,0.0287084971917692,0.0177109860523812,0.059492013361522,0.023352103213104,0.0180534111349015
0.00121127862140689,0.0156467620968978,0.0340707854026894,0.0289988521330333,0.0195012926986773,0.0605463178699832,0.0235947841490563,0.0180733229903893
0.00121167849326977,0.0160304530675209,0.0343675497147528,0.029244657793654,0.0213556385274617,0.0614732384919673,0.023782308920005,0.0180778464101505
0.00121504432330138,0.0164168594407242,0.0345969329002531,0.0294436438161184,0.0232625954797763,0.0622588313256016,0.0239094384936915,0.0180647149797778
0.00122065792456827,0.0168015866598489,0.0347547600924854,0.0295941631820022,0.0252100041790793,0.0628906284717799,0.0239720463581916,0.0180318256022271
0.00122783182309735,0.0171799306261273,0.0348378294597679,0.0296952034364935,0.0271850112841258,0.0633577841124445,0.0239671805268014,0.0179772598538992
0.00123592154791267,0.017546941942487,0.0348440178619304,0.0297463852397488,0.0291741247202295,0.063651204925292,0.0238930980117876,0.0178993071581608
0.00124433657393599,0.0178975001516259,0.0347723726493675,0.0297479488696114,0.0311632880245077,0.0637636616953208,0.0237492714818579,0.0177964899023902
0.00125254975846504,0.0182263966469191,0.0346231874786858,0.0297007305394098,0.0331379740373155,0.0636898795350672,0.0235363677880418,0.0176675904664025
0.00126010510800503,0.01852842486131,0.0343980588745391,0.0296061309150467,0.0350832973260508,0.063426605161462,0.0232561990149944,0.017511679948386
0.00126662369306323,0.0187984763318437,0.0340999199631859,0.0294660777187204,0.0369841438745194,0.0629726507983299,0.0229116483932542,0.0173281481768135
0.0012718075543768,0.019031641188,0.0337330485401042,0.029282983391332,0.038825315407101,0.0623289149712815,0.0225065750286936,0.0171167344236448
0.00127544152743366,0.0192233114314302,0.0333030480565373,0.0290596984272807,0.0405916847817458,0.0614983800409434,0.0220457023132198,0.0168775580804742
0.0012773930175704,0.0193692849769185,0.0328168016730298,0.0287994613456412,0.042268358905147,0.0604860845611059,0.0215344947853193,0.0166111483344097
0.00127760983448008,0.019465867739512,0.0322824006106572,0.0285058468995756,0.0438408464439586,0.0592990670525132,0.0209790274795791,0.01631847143789
0.00127611621136963,0.019509970223574,0.0317090480999236,0.0281827145976787,0.0452952284352827,0.0579462784688269,0.0203858512291453,0.0160009535020628
0.00127300713018944,0.0194991945433143,0.0311069393842539,0.0278341595654612,0.0466183298387818,0.0564384633030955,0.0197618572383277,0.0156604962369938
0.00126844111800955,0.0194319079144712,0.0304871176360348,0.0274644670352784,0.047797888901733,0.0547880122757717,0.0191141442983542,0.0152994831143868
0.00126263176489851,0.0193072994167717,0.0298613062059118,0.0270780705899258,0.0488227200824339,0.0530087909903345,0.0184498919990432,0.0149207740642968
0.00125583828436391,0.0191254179902672,0.0292417191568184,0.026679513405803,0.0496828663474527,0.0511159482290909,0.0177762429697552,0.0145276877891657
0.00124835545131632,0.0188871907101878,0.0286408538415259,0.0262734115149764,0.0503697378227035,0.0491257065611965,0.0171001964847605,0.0141239716953147
0.00124050322922319,0.0185944208294414,0.0280712706053107,0.0258644183785466,0.0508762353394683,0.0470551385112607,0.0164285149454834,0.0137137598940276
0.00123261639106911,0.018249764913852,0.0275453649532114,0.0254571904874984,0.0511968585876577,0.0449219331597075,0.0157676441697763,0.0133015195922972
0.00122503445109605,0.0178566885990786,0.027075136868818,0.0250563538726037,0.0513277986382186,0.0427441592913998,0.0151236480626881,0.0128919860115288
0.00121809222424722,0.0174194016463108,0.026671961527585,0.0246664709777579,0.0512670132938899,0.0405400310996245,0.0145021578373949,0.0124900863322894
0.00121211129818852,0.016942774599338,0.0263463660818782,0.02429200650875,0.0510142822328739,0.0383276810002392,0.0139083353646065,0.0121008540004702
0.00120739264619445,0.0164322406649461,0.026107818099415,0.0239372904423535,0.050571238810603,0.0361249424913564,0.0133468497483477,0.0117293356532785
0.00120421054893909,0.0158936869020537,0.0259645319028116,0.0236064768426998,0.0499413768330783,0.0339491452279203,0.0128218661180125,0.011380493569572
0.00120280793437776,0.0153333384955591,0.0259232989797245,0.0233034981896891,0.0491300326734222,0.031816924497174,0.0123370456850935,0.0110591067113231
0.00120339318245833,0.014757639504158,0.0259893477573055,0.0230320159314142,0.0481443445318763,0.0297440475895119,0.0118955559730337,0.0107696731271724
0.0012061383782132,0.0141731333642468,0.0261662368266438,0.0227953682838784,0.0469931904856192,0.0277452596656473,0.0115000897430218,0.0105163160465791
0.00121117894329986,0.0135863463693932,0.026455784582167,0.0225965158959279,0.0456871056031652,0.0258341512334597,0.0111528908989353,0.0103026957184963
0.00121861454031458,0.0130036770801479,0.026858037165908,0.0224379858309613,0.0442381776113978,0.0240230482341186,0.0108557857636045,0.0101319289721537
0.0012285111221936,0.0124312941244505,0.0273712754473481,0.022321815013352,0.0426599213109215,0.022322924625192,0.0106102183662243,0.0100065184978545
0.00124090397400156,0.0118750442638894,0.0279920605427405,0.0222494954199152,0.0409671335001063,0.0207433368847254,0.0104172884715689,0.00992829385440462
0.00125580155299651,0.0113403720896396,0.0287153162078134,0.0222219240854664,0.0391757315016899,0.0192923800173596,0.0102777908691066,0.0098983661086227
0.001273189892371,0.0108322523309722,0.0295344454618349,0.0222393609273565,0.0373025785573585,0.017976665031131,0.0101922541465157,0.00991709773430987
0.0012930373250062,0.0103551354158174,0.0304414780618084,0.0223013967870745,0.03536529832887,0.0168013180201406,0.0101609771816075,0.00998408894454085
0.00131529930792258,0.00991290648562654,0.0314272448000996,0.0224069337094517,0.0333820798963423,0.0157700006354671,0.0101840619420862,0.0100981810964904
0.00133992316341023,0.00950885760993111,0.0324815737337471,0.0225541793886433,0.0313714750192184,0.0148849510896137,0.010261441623344,0.010257477280582
0.00136685256741139,0.00914567268036659,0.0335935023013073,0.0227406574096579,0.0293521905799908,0.0141470444386294,0.010392903351205,0.010459379673357
0.00139603159498648,0.0088254243689038,0.0347514984999628,0.0229632341587339,0.0273428801002115,0.0135558706881179,0.010578104555503,0.0107006426818488
0.00142740811685326,0.00854958240286804,0.035943684471885,0.0232181624282475,0.0253619382675327,0.0131098289070237,0.0108165821021105,0.0109774404072265
0.00146093637885015,0.00831903211161958,0.0371580567267429,0.0235011411326989,0.0234273015582675,0.0128062349910762,0.0111077536795171,0.0112854465766013
0.00149657867677115,0.00813410187787587,0.0383826979526143,0.0238073899396258,0.0215562572177977,0.0126414403291667,0.0114509115853647,0.0116199248106899
0.00153430611165357,0.00799459798914309,0.0396059751420795,0.0241317367620423,0.0197652627173843,0.0126109584512674,0.0118452095635658,0.0119758267939715
0.00157409842946433,0.00789984542937743,0.0408167180988033,0.0244687153320123,0.0180697780926018,0.0127095965503699,0.0122896434201658,0.0123478955109301
0.00161594293410635,0.00784873327043779,0.0420043728729986,0.0248126699498369,0.0164841138234014,0.0129315883917377,0.0127830259366071,0.012730770416224
0.00165983248843529,0.00783976340598356,0.0431591266737334,0.0251578648438069,0.0150212968318848,0.0132707246392296,0.0133239566166839,0.0131190915140331
0.00170576269811101,0.00787110130962365,0.0442720033000272,0.0254985958411913,0.0136929566536789,0.0137204764261881,0.0139107872364853,0.0135075998085315
0.00175372845049642,0.00794062728051407,0.045334929715362,0.0258293017423047,0.0125092330245738,0.014274108374497,0.014541584747934,0.0138912321487099
0.00180371999835879,0.00804598650187691,0.0463407742697407,0.0261446721419637,0.0114787053308961,0.0149247782145656,0.015214093408519,0.01426520873492
0.00185571875149303,0.00818463644419147,0.0472833563663986,0.0264397483751386,0.0106083437608051,0.0156656213452401,0.0159256978668881,0.0146251113805555
0.00190969293886209,0.0083538906866044,0.0481574279553274,0.0267100150533234,0.00990348151291168,0.0164898194959495,0.0166733887199391,0.0149669505562313
0.00196559333442345,0.00855095889939308,0.048958629225212,0.0269514807241652,0.00936780701116455,0.0173906528504533,0.0174537322832879,0.0152872197511169
0.00202334924711413,0.00877298324991658,0.0496834231380345,0.0271607467089876,0.00900337474114488,0.018361535338187,0.0182628468689573,0.0155829365827197
0.00208286493236246,0.00901707164722377,0.0503290148238772,0.0273350628195978,0.00881063309259752,0.0193960340062817,0.0190963882471295,0.0158516708683026
0.00214401653450881,0.00928032807006461,0.0508932615836931,0.027472368274207,0.00878846748853841,0.0204878750154917,0.0199495468028892,0.0160915600917746
0.00220664965969378,0.0095598800587927,0.0513745776959027,0.0275713166314671,0.00893425709355206,0.0216309399359491,0.0208170584019218,0.0163013124267437
0.00227057768200611,0.00985290346293314,0.0517718369635285,0.0276312846572435,0.00924394347359354,0.0228192561455706,0.0216932307168692,0.0164801973765866
0.00233558085466365,0.0101566446199192,0.0520842759239672,0.0276523658501412,0.0097121096375557,0.0240469847499965,0.0225719867825163,0.0166280245092802
0.00240140622559913,0.0104684401848034,0.0523114014961323,0.0276353492418592,0.0103320678103452,0.0253084092093371,0.0234469274743385,0.0167451114388877
0.00246776829880931,0.0107857348180607,0.0524529076901258,0.0275816835004924,0.0110959540207431,0.0265979275431717,0.0243114141209515,0.0168322427281698
0.0025343503802982,0.0111060969189505,0.0525086059646214,0.0274934264476035,0.0119948273441269,0.0279100501700448,0.0251586714931465,0.0168906214337682
0.0026008065847498,0.011427232610596,0.0524783724363184,0.0273731810511961,0.0130187717127611,0.0292394042043377,0.0259819101464465,0.0169218145834819
0.00266676451633101,0.0117469982134004,0.0523621131908692,0.027224020029319,0.0141569986496008,0.0305807437353434,0.0267744657620891,0.0169276934836965
0.00273182863110137,0.0120634113668543,0.052159747780932,0.0270494015387995,0.0153979499600235,0.0319289646847805,0.0275299519168159,0.0169103698482719
0.00279558421946616,0.0123746606596878,0.0518712108777519,0.0268530779211254,0.0167294001049682,0.0332791225669299,0.0282424216532674,0.0168721292096896
0.00285760186478506,0.012679113241043,0.0514964723259022,0.0266389991658736,0.0181385584117073,0.0346264515215405,0.0289065321210604,0.0168153635475223
0.00291744221526317,0.0129753197482353,0.0510355757392144,0.026411213310018,0.0196121712279344,0.0359663826248451,0.029517705490899,0.0167425051771115
0.00297466096139403,0.0132620161107918,0.0504886946413573,0.0261737669523587,0.0211366236911969,0.0372945587360082,0.0300722789527346,0.0166559635469311
0.00302881399959766,0.0135381222458066,0.0498562032122051,0.025930609626515,0.022698040540903,0.0386068431825175,0.0305676372454283,0.0165580660790339
0.00307946282752072,0.0138027381437956,0.0491387572917179,0.0256855054650271,0.0242823857341806,0.0398993208599088,0.0310023224297322,0.01645100402951
0.00312618020619321,0.0140551381455879,0.0483373812440559,0.0254419547909995,0.0258755614207268,0.0411682918254965,0.0313761166111722,0.0163367845128676
0.00316855603554813,0.0142947641531769,0.0474535571824193,0.0252031278619214,0.0274635077072011,0.0424102578966857,0.0316900933296384,0.0162171900066417
0.00320620330441187,0.0145212180951485,0.0464893139708857,0.024971813079061,0.0290323051503894,0.0436219021963006,0.0319466330892912,0.0160937465233029
0.00323876396568931,0.0147342535094344,0.0454473134065068,0.0247503820502964,0.0305682817057985,0.044800061730431,0.0321493995634895,0.0159677011192226
0.00326591464080902,0.0149337659575873,0.0443309297441073,0.0245407734688913,0.0320581249061513,0.0459416944867258,0.0323032755121256,0.0158400088407963
0.0032873721272863,0.0151197821655298,0.0431443174515579,0.0243444968103211,0.033488998830046,0.0470438439439882,0.0324142602352935,0.0157113289500392
0.00330289871930745,0.015292448147486,0.0418924622053326,0.024162655838102,0.0348486644045299,0.0481036039345876,0.032489332075547,0.0155820302525354
0.00331230731256558,0.015452016935381,0.0405812116380745,0.0239959910741926,0.0361256008217479,0.0491180857752795,0.0325362796037145,0.0154522052537198
0.00331546615393476,0.0155988367365324,0.0392172843484861,0.0238449394605812,0.0373091253230744,0.0500843891269634,0.0325635051001228,0.0153216924613209
0.00331230299655931,0.0157333402400262,0.0378082571438632,0.0237097083979009,0.0383895083922932,0.0509995784183312,0.032579805184819,0.0151901056299278
0.00330280840714322,0.0158560353275039,0.0363625306091836,0.0235903605962408,0.0393580815779254,0.051860666628207,0.0325941354941587,0.0150568685416128
0.00328703803927628,0.0159674967756862,0.0348892721650638,0.0234869057454934,0.0402073356491468,0.0526646070298767,0.0326153679119111,0.0149212540561765
0.00326511378701638,0.0160683580304099,0.0333983354211495,0.0233993944740976,0.0409310072204014,0.0534082922758096,0.032652049158312,0.0147824262991517
0.00323722380631577,0.0161593020051909,0.031900155785681,0.0233280093349271,0.0415241517751178,0.0540885601815564,0.0327121686875673,0.0146394846568821
0.00320362138202483,0.0162410501155577,0.0304056243877253,0.0232731473468764,0.041983199955184,0.0547022061658564,0.0328029429383706,0.0144915078795025
0.00316462253263915,0.0163143492884639,0.0289259443349235,0.0232354893809034,0.0423059931023328,0.0552460021134664,0.0329306224496164,0.0143375966020667
0.0031206021999016,0.0163799572494821,0.0274724742431114,0.0232160529793606,0.0424917946244322,0.0557167200894703,0.0331003276840932,0.0141769130481646
0.00307198895165844,0.0164386266643125,0.0260565635791944,0.0232162261714986,0.0425412758001828,0.0561111585286239,0.0333159181674458,0.0140087171251423
0.00301925829915412,0.0164910884822309,0.0246893835433942,0.0232377799376257,0.0424564772037268,0.0564261695193769,0.0335798978947154,0.0138323981259883
0.00296292490080453,0.0165380344061442,0.023381756995656,0.0232828569053623,0.0422407488701824,0.0566586878067151,0.0338933582241542,0.0136475010080853
0.00290353400020515,0.016580098397082,0.0221439912383968,0.0233539348296366,0.041898672738464,0.0568057635221015,0.0342559577963368,0.01345374633952
0.00284165240351041,0.0166178376086471,0.0209857178041529,0.0234537653543208,0.0414359698697794,0.0568646002245344,0.0346659377469105,0.0132510435539764
0.00277785924334296,0.0166517138094465,0.0199157434574573,0.023585290539089,0.0408593938616218,0.0568325981791459,0.0351201699227176,0.0130394976855495
0.00271273679829181,0.016682076782733,0.0189419163434987,0.023751540711016,0.0401766118921675,0.0567074018469498,0.0356142357388314,0.0128194098464186
0.00264686171036815,0.0167091510999338,0.0180710106672309,0.0239555171408316,0.0393960757781982,0.0564869509339246,0.0361425331518242,0.0125912714474864
0.00258079699554193,0.0167330271591807,0.0173086325574809,0.0242000628478007,0.0385268866853211,0.0561695353039767,0.0366984084271641,0.0123557521237507
0.00251508522657316,0.0167536569946044,0.0166591489381276,0.0244877254154105,0.0375786580975241,0.0557538548042966,0.0372743081601148,0.012113681746815
0.00245024317568333,0.0167708553353865,0.0161256403423188,0.0248206167812488,0.0365613818883387,0.0552390851271739,0.0378619463964301,0.0118660275053384
0.00238675806550217,0.0167843064742662,0.0157098776763913,0.0252002758242617,0.0354853016189603,0.0546249500293857,0.0384524821605408,0.0116138674149066
0.00232508543231804,0.0167935773394564,0.0154123220014554,0.0256275396546497,0.0343607956302226,0.0539117984440675,0.039036703836662,0.0113583615506645
0.00226564848535283,0.0167981366300654,0.0152321456183483,0.0261024288072511,0.0331982706566201,0.0531006826029545,0.0396052179678387,0.0111007220180699
0.00220883874854222,0.0167973793102545,0.0151672723016948,0.0266240507211888,0.0320080652166012,0.0521934314578672,0.0401486404473953,0.0108421826536331
0.00215501767438287,0.0167906554896118,0.0152144344931543,0.0271905254271776,0.0308003611856963,0.0511927134408079,0.0406577873675163,0.010583969695519
0.0021045188326479,0.0167773025917167,0.015369245576252,0.0277989370554559,0.0295851018066085,0.050102083896642,0.0411238614518015,0.0103272748723543
0.00205765025897231,0.0167566793851033,0.0156262858545328,0.0284453142487934,0.0283719148975544,0.0489260146512251,0.0415386292892919,0.0100732322687382
0.00201469662356716,0.0167281999231936,0.0159792013125734,0.0291246415896966,0.0271700409228875,0.0476699051101286,0.0418945850601197,0.00982289993802433
0.00197592100846152,0.0166913652214824,0.0164208144310862,0.0298309028445679,0.0259882663726436,0.0463400750023554,0.0421850977437989,0.00957724677670544
0.00194156619173488,0.0166457908571948,0.0169432461098864,0.0305571556112959,0.0248348629909902,0.044943737983798,0.0424045402547909,0.00933714473913886
0.00191185536901093,0.0165912293224184,0.0175380471438738,0.0312956360435403,0.0237175326980814,0.0434889539150911,0.0425483998154077,0.00910336602272646
0.00188699220879649,0.0165275863865778,0.0181963369471899,0.0320378916276277,0.0226433573770398,0.0419845574598645,0.0426133685656767,0.00887658451663156
0.00186716013080389,0.0164549306075544,0.0189089466293649,0.0327749393448803,0.0216187527904359,0.0404400620548152,0.0425974121183251,0.00865738064676991
0.00185252076063535,0.016373494892358,0.0196665632203266,0.0334974457694348,0.0206494266075323,0.0388655405945246,0.0424998128587666,0.00844624860558775
0.00184321161990264,0.016283669380866,0.0204598718549614,0.0341959245173355,0.019740341388506,0.0372714864553279,0.0423211852745878,0.00824360471167637
0.00183934321429866,0.0161859859374301,0.0212796930560008,0.0348609450772507,0.0188956839834078,0.0356686599204836,0.042063462237827,0.0080497955336224
0.00184099575088153,0.016081095674678,0.0221171128169516,0.0354833461046396,0.0181188429179691,0.034067925117051,0.0417298530919203,0.00786510468928607
0.00184821573100944,0.0159697416318128,0.0229636038267418,0.0360544462806324,0.0174123948853143,0.0324800814884213,0.0413247755591343,0.00768975778378779
0.0018610126230611,0.0158527287024252,0.0238111366828011,0.0365662466982965,0.0167781006652468,0.0309156928884229,0.0408537631924516,0.00752392545701029
0.00187935574254726,0.0157308925450304,0.0246522800785182,0.0370116198731661,0.0162169101539072,0.0293849174594519,0.0403233490995222,0.00736772469631238
0.00190317140248142,0.0156050691446671,0.025480288537315,0.0373844811028215,0.0157289759847719,0.0278973422779976,0.0397409266789012,0.00722121847254536
0.00193234036860419,0.0154760669176412,0.0262891754171649,0.0376799374670412,0.0153136753788054,0.0264618276729167,0.0391145895389171,0.0070844137593664
0.00196669566144538,0.0153446433646093,0.0270737682649615,0.0378944089026007,0.0149696401725415,0.025086366585915,0.038452954763492,0.00695725827642641
0.00200602078350755,0.0152114879880114,0.0278297437067357,0.0380257160199795,0.0146947951994081,0.0237779640401168,0.0377649751530039,0.00683963669126864
0.00205004850243821,0.0150772125183319,0.0285536399642195,0.0380731311137773,0.0144864051191652,0.0225425407455299,0.0370597461968237,0.00673136729517898
0.00209846036610363,0.0149423486842209,0.0292428465499854,0.0380373914457887,0.0143411293393278,0.0213848634528176,0.0363463125069196,0.00663220019057911
0.00215088713118438,0.0148073529701886,0.0298955723046747,0.0379206762400293,0.0142550841621424,0.0203085032432779,0.0356334776148185,0.00654181780802508
0.00220691023695089,0.0146726172013751,0.030510794184285,0.0377265498833187,0.0142239111035072,0.0193158217466189,0.0349296212292495,0.00645983827354062
0.00226606438861116,0.0145384835454042,0.0310881895703991,0.0374598733508803,0.0142428504584523,0.0184079844044826,0.0342425288810979,0.00638582185615591
0.002327841286208,0.014405262541473,0.0316280542968424,0.0371266852185744,0.0143068193780716,0.0175849991672299,0.0335792396428998,0.0063192804067627
0.00239169454624697,0.0142732527682152,0.0321312080458109,0.0367340541700255,0.0144104936946226,0.0168457782007345,0.032945917742715,0.00625968938088567
0.0024570458776255,0.0141427604829001,0.0325988892903096,0.0362899065278632,0.0145483923537714,0.016188219489141,0.0323477531230245,0.0062065017462583
0.00252329255192284,0.0140141171916842,0.0330326434446456,0.0358028342055183,0.0147149628521203,0.0156093050366142,0.031788894498316,0.00615916279228979
0.00258981613279312,0.0138876931819132,0.0334342095695993,0.0352818898117699,0.0149046659468155,0.0151052126432753,0.0312724168026709,0.00611712468083347
0.00265599233372332,0.0137639056994365,0.0338054120352178,0.0347363759204103,0.0151120581467856,0.0146714385838104,0.0308003233566905,0.00607985964197791
0.00272120181002775,0.0136432213617172,0.0341480634361381,0.0341756346385915,0.015331870879175,0.014302928609926,0.0303735814602692,0.00604687101738677
0.00278484166259312,0.0135261530894506,0.0344638839067441,0.0336088422228387,0.0155590854413732,0.0139942144305614,0.0299921883669203,0.0060177017487533
0.00284633740367522,0.0134132519682752,0.0347544405757904,0.0330448125845542,0.015789002659323,0.0137395523758645,0.0296552629280168,0.00599194020079015
0.00290515507083705,0.013305094227118,0.0350211096443486,0.0324918133584212,0.0160173057208547,0.0135330606327551,0.0293611569778217,0.00596922325183463
0.00296081306940453,0.013202263594522,0.0352650621881807,0.0319573984809958,0.0162401144686885,0.0133688514545388,0.0291075800664574,0.00594923649800496
0.003012893236456,0.0131053298388975,0.0354872730741564,0.0314482615579552,0.016454029759154,0.0132411550098085,0.0288917314999577,0.00593171149873502
0.00306105060826875,0.0130148249448377,0.0356885505552316,0.0309701143324334,0.0166561671325423,0.0131444316917613,0.0287104345724743,0.00591642031297941
0.003105021439734,0.0129312186970294,0.0358695823174216,0.0305275940237386,0.0168441796817422,0.0130734695823632,0.0285602688774283,0.00590316798505305
0.00314462913491835,0.0128548952618001,0.0360309920890259,0.0301242021219412,0.0170162703427545,0.0130234639197097,0.0284376970422894,0.00589178395907617
0.00317978784694171,0.0127861319946299,0.036173399996387,0.029762275832525,0.0171711936626383,0.0129900764256508,0.0283391818186982,0.00588211350758674
0.00321050352761116,0.0127250815792831,0.0362974801823697,0.0294429923524775,0.0173082465505696,0.0129694739755146,0.0282612889226903,0.00587401013125382
0.00323687215114703,0.012671758681583,0.0364040106299962,0.0291664055908141,0.0174272471160419,0.0129583476102249,0.0282007715602214,0.00586732963799417
0.0032590748322899,0.0126260323012781,0.03649391188387,0.0289315145582127,0.0175285008184059,0.0129539136454011,0.0281546343465646,0.00586192636083904
0.00327736971596636,0.0125876247237521,0.0365682723520972,0.0287363621699376,0.0176127537769204,0.0129538987035048,0.0281201766400638,0.00585765170886732
0.00329208080053557,0.0125561174721965,0.0366283576261096,0.0285781624405086,0.0176811340337083,0.0129565106756603,0.0280950172557899,0.00585435494982937
0.00330358415909017,0.0125309642350709,0.0366756011272745,0.0284534528997759,0.0177350825099253,0.0129603981003054,0.0280771033521269,0.0058518858342739
0.00331229222041112,0.012511510500589,0.0367115749689558,0.0283582676122594,0.0177762759197137,0.0129646007126682,0.0280647059031242,0.00585009840132246
0.0033186368001218,0.0124970194269711,0.0367379428943699,0.0282883247860205,0.017806543800095,0.012968493746641,0.0280564035783053,0.0058488551475111
0.00332305153245709,0.0124867031406074,0.0367564000760946,0.0282392218969354,0.0178277816956661,0.0129717283930509,0.0280510569918512,0.00584803081742282
0.00332595440949127,0.012479758121263,0.0367686060563952,0.0282066304834054,0.0178418631940462,0.012974170905326,0.0280477760037927,0.00584751536017311
0.00332773130171116,0.0124754027428574,0.0367761168377757,0.0281864820511362,0.0178505548277438,0.0129758428825089,0.0280458834447584,0.00584721591113754
0.00332872151747437,0.0124729145480617,0.0367803214524641,0.0281751355920366,0.017855439137807,0.0129768650007717,0.0280448787679048,0.00584705779265493
0.00332920656254325,0.0124716644121406,0.0367823884930093,0.0281695159350879,0.0178578517494791,0.0129774062263036,0.0280444044665139,0.00584698445822965
0.00332940323419678,0.0124711442825645,0.0367832287529382,0.0281672107431274,0.0178588381321944,0.0129776407035991,0.0280442168442789,0.00584695628445844
0.00332946206984851,0.012470984592413,0.0367834804811593,0.0281665127453238,0.0178591356135875,0.0129777149356541,0.0280441614100982,0.00584694827839203
