APL,FCR,FDS,FDP,ED,EI,ECU,ECR
0.000634499099239822,0.00600461751815198,0.02398790897038,-0.00115147394622214,0.00465817086323298,0.0588271770286896,0.040372493534241,0.00401491479757769
0.00128164431312042,0.00651924517665654,0.0238509056142746,0.00110863328480185,0.00489829036422581,0.0827756756768687,0.0495745398921525,0.00458588865215511
0.00194394554456057,0.00699633537599131,0.0238336253989627,0.00333797300395454,0.00511298681082203,0.105284072898354,0.0581426147239532,0.00514579200289983
0.00262140966727296,0.00743229958687652,0.0239440839119904,0.00552027905495995,0.00530112910014629,0.126166637735946,0.0660076304817907,0.00568985557680806
0.00331441936022009,0.00782418809227259,0.0241890183379557,0.00763979191118535,0.00546208162818864,0.145260402148842,0.0731106974613108,0.00621346370667634
0.00402375396193751,0.00816974281683171,0.0245737240928398,0.00968149496414883,0.0055957217624068,0.162428018362301,0.0794041411647382,0.00671223878430253
0.00475059739870218,0.00846742999522748,0.0251019094686613,0.0116313339813867,0.00570244189096639,0.177559951776445,0.0848522107869261,0.00718212353847291
0.00549653302718633,0.00871645203955516,0.0257755701900825,0.013476415755451,0.00578313627162926,0.190575969368413,0.0894314680739803,0.00761945887697664
0.0062635259832894,0.00891673952014109,0.0265948852086512,0.0152051824634214,0.00583917406930522,0.201425927093115,0.0931308668851697,0.00802105505586634
0.00705389395120757,0.0090689252209816,0.0275581347396807,0.0168075591024615,0.00587236069384519,0.210089887401195,0.0959515471935207,0.00838425422188186
0.00787026731095293,0.00917430258450448,0.0286616415946457,0.0182750722272067,0.00588488975577155,0.216577607157644,0.0979063717606745,0.00870698277681245
0.00871553975419991,0.0092347707922168,0.0298997372987906,0.0196009384916749,0.00587928784291279,0.220927437679405,0.0990192336408826,0.00898779228375265
0.00959281077323583,0.00925276876806681,0.0312647550830294,0.0207801215905784,0.00585835417822653,0.223204686273789,0.0993241642255769,0.00922588761955144
0.0105053217662568,0.00923120067345764,0.0327470521446851,0.0218093569826127,0.00582509712147839,0.223499503641279,0.0988642757177542,0.00942114104195601
0.011456387681345,0.00917335578608599,0.0343350631365141,0.0226871452479946,0.00578266935966425,0.221924377312511,0.0976905763551133,0.00957409120586333
0.0124493260191612,0.00908282582917432,0.0360153857505107,0.0234137164175835,0.00573430346911995,0.218611321738989,0.0958606993393335,0.00968592694084502
0.0134873846566403,0.00896342275815975,0.0377728982597689,0.0239909684188416,0.00568324935302327,0.213708857211772,0.0934375863585942,0.00975845649048011
0.014573669572424,0.00881909972905789,0.0395909083797546,0.0244223826287803,0.00563271489502859,0.207378863270724,0.0904881638891348,0.00979406355433701
0.0157110733482332,0.00865387753190881,0.0414513325989058,0.0247129190060848,0.00558581103013,0.199793383435293,0.0870820458474096,0.00979565163390447
0.0169022052999554,0.00847177825177532,0.043334904927953,0.0248688932940858,0.00554550229231998,0.191131451143518,0.0832902906421958,0.00976657802478915
0.0181493241885832,0.00827676738496056,0.0452214137102401,0.0248978394346159,0.00551456371704369,0.181576000517121,0.0791842350824725,0.00971057879856353
0.0194542745810174,0.00807270513667147,0.0470899647070997,0.0248083611635604,0.00549554473065701,0.171310917653987,0.0748344224334847,0.00963168645709063
0.0208184279609825,0.00786330719210883,0.0489192680381807,0.0246099773087726,0.00549074035575096,0.160518278250924,0.070309637424952,0.00953414243972963
0.0222426295023511,0.00765211490924425,0.0506879454377453,0.024312965296087,0.0055021697362584,0.149375807374692,0.0656760570176332,0.00942230707945713
0.0237271508885658,0.00744247462558658,0.0523748525147514,0.0239282067394072,0.00553156169132334,0.138054588255151,0.0609965217910395,0.00930056975506038
0.0252716487005418,0.00723752556020041,0.0539594090070169,0.0234670378811491,0.00558034679116284,0.126717038308317,0.0563299289471535,0.00917326180552798
0.0268751270200261,0.00704019555097411,0.0554219294775263,0.0229411063227341,0.00564965533873401,0.115515162211832,0.0517307449304222,0.00904457438977125
0.0285359023854534,0.00685320355062511,0.0567439476660807,0.0223622342886565,0.00574032062565046,0.104589085299491,0.0472486339944655,0.00891848312153397
0.0302515692409254,0.00667906750732512,0.0579085291432284,0.0217422878951866,0.00585288684969744,0.0940658664615971,0.0429281982871704,0.00879868103036125
0.0320189645352863,0.00652011612643173,0.0589005680570087,0.0210930517147424,0.00598762104094383,0.0840585872011881,0.0388088243597713,0.00868852108976789
0.033834131014752,0.00637850306841058,0.0597070636762781,0.0204261083321004,0.00614452818461188,0.0746657110384253,0.0349246297002555,0.00859096914189618
0.0356922796283293,0.00625622229675343,0.0603173708457098,0.0197527233202616,0.00632336854767265,0.0659707039603669,0.0313045009887711,0.00850856757356286
0.0375877517166942,0.00615512341488505,0.0607234167172619,0.0190837366555963,0.00652367617776833,0.0580419024447264,0.0279722141586337,0.00844340962982821
0.0395139810602805,0.00607692579807104,0.0609198759369518,0.0184294615959601,0.0067447776731461,0.0509326123593565,0.0249466252755607,0.00839712379497622
0.0414634555124312,0.00602323017417984,0.0609042980866569,0.017799591541822,0.00698581054847853,0.0446814200958655,0.0222419201666081,0.00837086729896398
0.043427678967339,0.00599552629421836,0.0606771838479925,0.0172031151354294,0.00724574076505649,0.0393126955542416,0.0198679097593035,0.00836532763946213
0.0453971364229417,0.00599519561421376,0.0602420089510076,0.0166482402139827,0.00752337919586064,0.0348372644110626,0.017830358062038,0.00838073106744664
0.0473612666035274,0.00602350840789882,0.059605196280431,0.0161423279110729,0.00781739690850293,0.0312532252572872,0.0161313306381343,0.00841685717994672
0.0493084468392491,0.0060816152731082,0.0587760358197739,0.0156918387318856,0.00812633911779694,0.0285468863570705,0.0147695524255898,0.00847305893381038
0.0512259939018257,0.00617053339722904,0.0577665506087777,0.0153022924935608,0.00844863745445385,0.0266937962585013,0.0137407640981614,0.00854828736709469
0.0531001839642038,0.00629112807101811,0.0565913070481556,0.014978243559169,0.00878261994371226,0.0256598417554118,0.0130380663955493,0.00864112010377662
0.0549162954681543,0.00644408984470369,0.0552671704188481,0.014723272022021,0.00912651802985388,0.0254023868882068,0.0126522432349641,0.00874979262792322
0.0566586795975016,0.00662990769336459,0.0538130102986946,0.0145399906877039,0.00947847021659174,0.0258714289936479,0.012572057100281,0.00887223154594772
0.0583108631273772,0.00684883876163307,0.0522493640342465,0.0144300668860587,0.00983652234570879,0.0270107519096345,0.0127845133620961,0.00900608950887198
0.0598556870389741,0.00710087561545383,0.0505980680756869,0.0143942573087256,0.0101986250395914,0.0287590609378775,0.0132750927977324,0.00914878192390241
0.0612754821294081,0.00738571230870873,0.0488818663759187,0.0144324532587697,0.0105626291735834,0.031051087420895,0.0140279529470424,0.00929752584614407
0.0625522812667542,0.00770271086557888,0.0471240038621741,0.0145437330146153,0.0109262802469851,0.0338186520534172,0.0150260994047372,0.00944938139147288
0.0636680672885137,0.00805086990636234,0.0453478131472782,0.0147264177236097,0.0112872122740228,0.036991677010359,0.0162515289869414,0.00960129569412057
0.0646050553402966,0.00842879705514107,0.0435763040013062,0.0149781275607324,0.0116429417036374,0.0404991397355019,0.0176853483200739,0.00975014906811514
0.0653460081081778,0.00883468650286874,0.041831766508423,0.0152958357153005,0.0119908620871658,0.044269965420334,0.0193078730959541,0.00989280278267645
0.0658745813652587,0.00926630285252751,0.0401353993815862,0.0156759186978723,0.0123282405924324,0.0482338591194483,0.0210987142503382,0.0100261477237916
0.066175695142889,0.00972097229259535,0.0385069742267554,0.0161142019573515,0.0126522177504932,0.0523220807176783,0.0230368573370836,0.0101471531585163
0.0662359229044423,0.01019558219134,0.0369645448050958,0.0166059997458464,0.0129598117946005,0.0564681661717806,0.0251007406736698,0.010252914847332
0.0660438885466447,0.0106865902372431,0.0355242081549873,0.0171461483007005,0.0132479285853676,0.0606085971289653,0.0272683368775449,0.0103407018666719
0.0655906598364132,0.0111900441162107,0.0341999223070289,0.0177290323176455,0.0135133777104045,0.0646834191137041,0.0295172413965442,0.0104080016694925
0.064870127070116,0.0117016123649008,0.0330033832332038,0.0183486060628996,0.0137528951716948,0.0686368065781886,0.0318247708063493,0.0104525630211003
0.0638793569063134,0.0122166266428219,0.0319439615689785,0.0189984116234129,0.0139631730799996,0.0724175710828905,0.0341680730387072,0.0104724363573499
0.0626189127204514,0.0127301353935505,0.031028697660481,0.0196715971632143,0.0141408967705397,0.0759796063570561,0.036524250941463,0.0104660107953078
0.0610931333858382,0.0132369686491574,0.0302623515954788,0.0203609377665719,0.014282789544933,0.0792822618954827,0.0388704994428444,0.0104320467460306
0.0593103613240344,0.0137318133938491,0.0296475030504828,0.0210588612874203,0.0143856647636241,0.0822906367003592,0.0411842556588309,0.0103697031024943
0.0572831092920447,0.0142092984149192,0.0291846942446377,0.0217574818418284,0.0144464845082547,0.0849757871458128,0.0434433610891041,0.0102785582852509
0.055028156266889,0.0146640871858931,0.028872608215888,0.0224486437228852,0.0144624238236303,0.0873148467597804,0.0456262352738444,0.0101586248658861
0.0525665663510771,0.0150909772303697,0.0287082740440779,0.0231239781447048,0.0144309396334951,0.0892910592117478,0.0477120601037906,0.0100103578825393
0.0499236291270939,0.0154850044978321,0.02868729051963,0.0237749743391981,0.0143498435755725,0.0908937270031498,0.0496809728514766,0.00983465716428105
0.0471287230992704,0.0158415513082022,0.0288040600594473,0.0243930654862689,0.0142173779414404,0.0921180768296486,0.051514264631267,0.00963286389024013
0.0442151044608454,0.0161564561696622,0.0290520252920501,0.0249697288650709,0.014032293506385,0.0929650412741096,0.0531945805504011,0.00940675128334739
0.0412196227150179,0.0164261232050506,0.0294239014289651,0.025496598537359,0.013793927573645,0.0934409583401796,0.0547061182261886,0.00915850908459547
0.0381823653170019,0.0166476283283475,0.0299118979248376,0.0259655880906819,0.0135022804335875,0.0935571948326947,0.0560348216729114,0.00889072150551638
0.0351462358872022,0.0168188190141143,0.0305079226175628,0.0263690204334673,0.013158088667508,0.0933297043913845,0.0571685668274535,0.00860633867253797
0.0321564733488497,0.0169384045531774,0.031203760824087,0.0266997609491811,0.0127628940792886,0.0927785336410723,0.0580973332669337,0.00830864199063536
0.0292601212819798,0.0170060340141713,0.0319912220187787,0.0269513494749855,0.0123191072625154,0.0919272890957182,0.0588133555956272,0.00800120417574853
0.02650545718619,0.0170223596162534,0.0328622485656304,0.0271181263071122,0.0118300647168212,0.0908025746962914,0.0593112486329066,0.00768784477713157
0.0239413904793714,0.0169890836822476,0.0338089842147068,0.0271953481211801,0.0113000780082918,0.0894334085227345,0.0595881024512748,0.00737258181491167
0.0216168371389872,0.0169089875294539,0.0348238037057507,0.0271792908015896,0.0107344730299764,0.0878506281974508,0.0596435453015474,0.00705957994243213
0.0195800786999145,0.0167859403859416,0.0358993075451332,0.0270673367947971,0.0101396172857935,0.0860862964502595,0.0594797731990495,0.00675309555413361
0.0178781136354704,0.0166248860322644,0.0370282869046427,0.026858044332677,0.0095229333263343,0.0841731196721706,0.0591015438794074,0.00645741946246318
0.0165560095279344,0.0164318050777509,0.0382036633279311,0.0265511956580465,0.00889289688344434,0.0821438919105778,0.058516131570792,0.00617681798736953
0.015656264601856,0.0162136517986901,0.0394184084177184,0.0261478222677528,0.00825901871624697,0.0800309742319356,0.0577332397439005,0.00591547337349967
0.0152181870374647,0.0159782659404352,0.0406654503280954,0.0256502068881591,0.00763180951290379,0.0778658155745813,0.0567648717338702,0.00567742431628995
0.0152773000087837,0.0157342612462362,0.0419375756605739,0.0250618634498541,0.00702272723925204,0.0756785180026146,0.0556251625163441,0.00546650720175179
0.0158647796712111,0.0154908931871663,0.0432273362090818,0.0243874968913099,0.00644410612721946,0.0734974475963502,0.0543301774283039,0.00528629865099466
0.0170069324968066,0.0152579083010159,0.0445269694693817,0.0236329442123508,0.00590906639103663,0.0713488919167611,0.052897684154008,0.00514006009167232
0.0187247176201603,0.0150453773291427,0.0458283401435627,0.0228050979194979,0.00543140400530584,0.069256765601775,0.0513469028851781,0.00503068520162851
0.0210333193306272,0.0148635146304084,0.0471229076575605,0.0219118135310238,0.00502546042811396,0.0672423665218222,0.0496982378870624,0.00496065105004207
0.0239417745537506,0.0147224870911409,0.0484017226053079,0.0209618037515378,0.00470597283954615,0.0653241851223135,0.0479729932764576,0.00493197363018413
0.0274526600941914,0.0146322165678765,0.0496554533766263,0.0199645226477899,0.00448790612014652,0.0635177682714199,0.046193076579157,0.00494616843181107
0.0315618444973158,0.0146021804844864,0.0508744429309523,0.0189300432234594,0.00438626826845641,0.0618356365880148,0.0443806949174998,0.00500421680818152
0.0362583094756893,0.0146412153876782,0.0520487942953325,0.0178689311962015,0.00441591115630441,0.0602872529134897,0.0425580498833807,0.00510653904016282
0.041524045692389,0.0147573280106265,0.053168481455679,0.0167921171126279,0.00459131850600775,0.0588790403001821,0.0407470378315937,0.00525297504743774
0.0473340269921938,0.014957517792362,0.0542234803124524,0.0157107687107843,0.00492638302916426,0.057614449768265,0.038968962182784,0.00544277358352266
0.0536562658525632,0.0152476140830218,0.055203913421985,0.0146361655359931,0.0054341749988046,0.0564940797563052,0.0372442632140115,0.00567459056429076
0.0604519514638553,0.0156321306744464,0.0561002027618235,0.013579577854741,0.00612670510050633,0.0555158495509345,0.0355922690215068,0.00594649702456393
0.0676756711310689,0.0161141399154572,0.0569032262930091,0.0125521516082345,0.0070146850884015,0.0546752275998076,0.0340309697506001,0.00625599704153116
0.0752757157279983,0.0166951684992786,0.0576044757750201,0.0115648005667344,0.00810729040343579,0.053965512978041,0.0325768164388964,0.00660005573681691
0.0831944703652468,0.0173751170081419,0.0581962141183178,0.0106281063657111,0.00941192934689925,0.0533781654014513,0.03124454583182,0.00697513718236177
0.0913688915440051,0.0181522053667916,0.0586716297975654,0.00975222684644797,0.010934023532282,0.0529031764804239,0.0300470329364455,0.00737725173692292
0.0997310709340867,0.0190229463191248,0.0590249839602728,0.00894681286768092,0.0126768041725024,0.0525294723127873,0.0289951734726896,0.00780201202455889
0.108208883175832,0.0199821487009344,0.059251744678099,0.00822093336378761,0.0146411285194304,0.0522453351761104,0.0280977984331085,0.0082446964744355
0.11672671219733,0.0210229516071278,0.0593487033540792,0.00758300809523655,0.0168253206657551,0.0520388304452428,0.0273616225192693,0.00870031917427258
0.125206249271152,0.0221368898694428,0.0593140702249944,0.0070407474642058,0.0192250409209596,0.0518982244155648,0.0267912273182499,0.00916370477283386
0.13356735635081,0.0233139908263403,0.059147548226744,0.0066010988217249,0.0218331879219,0.0518123796637393,0.0263890788547348,0.00962956722800816
0.14172898858946,0.0245429020105663,0.058850386138099,0.00627019863527401,0.0246398373266824,0.0517711165979528,0.0261555777241367,0.0100925912098874
0.149610168306441,0.0258110487692157,0.0584254119601475,0.0060533297209202,0.0276322202636138,0.0517655319959344,0.0260891385297683,0.0105475148056639
0.157130998464339,0.0271048199256326,0.0578770458448184,0.00595488276403705,0.030794743882086,0.0517882663055235,0.0261862941284707,0.0109892118406368
0.164213699903369,0.0284097788135143,0.0572112901156041,0.00597832167154538,0.0341090556127487,0.0518337108761567,0.0264418195466162,0.011412771867347
0.170783655919833,0.0297108965564446,0.0564356936874368,0.00612615273099332,0.037554151916591,0.0518981461291825,0.0268488704848239,0.0118135758937644
0.176770449273314,0.0309928039958033,0.0555592895463274,0.00639989784341343,0.0411065311473687,0.0519798041303881,0.0273991320091736,0.0121873662156814
0.182108877211594,0.0322400577934423,0.0545925060493096,0.00680007211717383,0.0447403890210589,0.0520788537187789,0.0280829740408009,0.0125303091544607
0.186739926878599,0.0334374151623559,0.0535470545794923,0.00732616603261266,0.0484278546779768,0.052197311349176,0.0288896111215292,0.0128390498753066
0.190611688318431,0.0345701111159122,0.0524357965149377,0.00797663247079581,0.0521392654167923,0.0523388839976217,0.0298072641078388,0.0131107585456795
0.193680180969827,0.0356241323158253,0.0512725912466466,0.00874887909576947,0.055843478270498,0.0525087509331177,0.0308233208515534,0.0133431668275694
0.195910073936223,0.0365864822508269,0.0500721255409525,0.00963926665331175,0.0595082158888,0.0527132908203452,0.0319244925121175,0.013534593455951
0.197275287294145,0.0374454331209067,0.0488497246369972,0.0106431136098081,0.0631004425009414,0.0529597620690263,0.033096962804106,0.0136839578667422
0.197759466324913,0.0381907599145848,0.0476211470668027,0.0117547074291987,0.0665867641996,0.0532559473629422,0.034326529045959,0.0137907814859657
0.197356319124526,0.0388139513951763,0.0464023671198621,0.0129673228160488,0.069933847498908,0.0536097760908232,0.0355987355920722,0.0138551770814869
0.196069803390471,0.0393083915763226,0.0452093498402316,0.0142732472312312,0.0731088509287289,0.0540289394117637,0.0368990012337108,0.0138778271454787
0.193914148302764,0.0396695050780227,0.0440578227819225,0.0156638137424275,0.0760798655647519,0.0545205116223821,0.0382127419125948,0.0138599523419844
0.1909137047966,0.0398948611013045,0.0429630474820046,0.0171294410888002,0.0788163609842991,0.0550905898409453,0.0395254892259512,0.0138032707311829
0.18710262846518,0.0399842332081561,0.041939593410986,0.0186596810801614,0.0812896324031379,0.0557439631393651,0.0408230050391519,0.0137099483273229
0.182524408611979,0.0399396146746595,0.0410011181172478,0.02024327403482,0.0834732423384097,0.0564838218031693,0.0420913933397308,0.0135825418562064
0.177231260213793,0.0397651907556591,0.0401601584041859,0.0218682135036285,0.0853434470063798,0.0573115165052724,0.0433172116024673,0.0134239351628301
0.171283391977917,0.0394672691146383,0.039427937670733,0.0235218216038457,0.0868795957200283,0.0582263753065888,0.0444875846009173,0.0132372712495494
0.164748159013224,0.0390541689054311,0.0388141936028625,0.0251908357977822,0.0880644917345676,0.059225583769733,0.04559032322172,0.0130258821117906
0.15769910902115,0.0385360693153116,0.0383270290197406,0.0268615074293772,0.0888847050591699,0.0603041309485123,0.0466140493446751,0.0127932182726155
0.150214936129976,0.0379248200902276,0.0379727880279012,0.0285197122398547,0.0893308308274812,0.0614548218686271,0.0475483259772333,0.0125427794607367
0.142378363254565,0.0372337188172807,0.0377559598208826,0.0301510732690876,0.0893976894838934,0.0626683548048972,0.0483837904167391,0.0122780476392776
0.134274978989594,0.0364772615853673,0.0376791129156334,0.0317410966331206,0.0890844656661086,0.063933459019505,0.0491122874109439,0.0120024236442429
0.12599205633692,0.0356708743810558,0.0377428627816453,0.0332753203832749,0.0883947807572105,0.0652370866022979,0.0497269989731427,0.0117191688473766
0.117617377366979,0.0348306319624191,0.0379458753159516,0.0347394759610325,0.0873366922606297,0.0665646512512105,0.0502225675811848,0.0114313532935854
0.109238082314244,0.0339729696098344,0.03828490731473,0.0361196608267865,0.0859226144489974,0.0679003064750048,0.0505952097519272,0.0111418115178454
0.100939557419334,0.0331143922246338,0.0387548832824753,0.0374025198466979,0.0841691590446038,0.0692272544972754,0.0508428169931889,0.0108531067944832
0.0928043743619485,0.0322711851262756,0.0393490062228059,0.0385754319609728,0.0820969000060655,0.0705280751672856,0.0509650402891297,0.0105675042126744
0.0849112942947802,0.031459131274894,0.0400588987613493,0.0396266973123815,0.0797300705478734,0.0717850635318614,0.0509633526003761,0.0102869528189744
0.0773343499612458,0.0306932400991521,0.0408747700083941,0.0405457185944905,0.0770962015821202,0.0729805664599911,0.0508410827833237,0.0100130769749264
0.0701420192322104,0.0299874932761639,0.0417856029470251,0.0413231698244995,0.0742257089274965,0.0740973116598662,0.0506034150827013,0.00974717686321311
0.0633965021614387,0.0293546124101443,0.042779356895672,0.0419511466140223,0.0711514346873054,0.0751187244772899,0.0502573507125923,0.00949023768176073
0.0571531112507265,0.0288058525011719,0.0438431797879247,0.0424232939387726,0.0679081485587784,0.0760292274785196,0.0498116309196611,0.00924294667043955
0.0514597812531297,0.0283508238147847,0.0449636255029294,0.0427349094244657,0.0645320171330087,0.0768145161889489,0.0492766228657013,0.00900571691744352
0.0463567011536346,0.0279973439517098,0.0461268718483999,0.0428830211258079,0.0610600520341785,0.0774618044672781,0.0486641696920609,0.0087787168737861
0.0418760678088565,0.0277513217307836,0.0473189344265549,0.0428664382146094,0.0575295497064139,0.0779600355206499,0.0479874053680972,0.00856190453420679
0.0380419584351605,0.027616674601874,0.0485258703481679,0.0426857721525827,0.0539775359009575,0.0783000580360941,0.0472605357251827,0.00835506518257294
0.0348703175566661,0.0275952812174401,0.0497339648412102,0.0423434263767786,0.0504402262814147,0.0784747695420073,0.0464985897243699,0.00815785136215076
0.0323690529401063,0.0276869701324654,0.0509298946156343,0.0418435542679174,0.0469525121510982,0.0784792296018732,0.0457171480312517,0.00796982341110919
0.0305382342592757,0.0278895445490562,0.0521008643604959,0.0411919873432117,0.0435474786907752,0.0783107434564644,0.0449320577619446,0.00779048876734831
0.029370387597047,0.0281988422504842,0.0532347159301881,0.0403961373587927,0.0402559625655555,0.077968913736924,0.0441591420477669,0.00761933842874846
0.0288508783068838,0.0286088295652774,0.0543200122439413,0.039464876701813,0.0371061556988598,0.0774556561065938,0.0434139118706793,0.00745587938622115
0.0289583741718272,0.0291117279350775,0.0553460985193368,0.0384084008269816,0.034123261800275,0.0767751749670195,0.0427112871399118,0.00729966234955615
0.029665380214189,0.0296981709560889,0.0563031422903115,0.037238075010923,0.0313292115030969,0.0759338973864253,0.0420653342121487,0.00715030443294517
0.030938835931968,0.0303573886744355,0.0571821526392045,0.0359662666066323,0.0287424406183032,0.0749403664183303,0.0414890269545008,0.00700750650367437
0.0327407651475588,0.0310774151100881,0.0579749796264716,0.0346061640193265,0.0263777342204048,0.0738050977441655,0.0409940373072927,0.00687106478290054
0.0350289679575876,0.0318453147994456,0.0586742966892023,0.0331715846032101,0.0242461374825835,0.0725404046068542,0.0405905592292266,0.00674087638428784
0.0377577432914444,0.0326474242700699,0.0592735708212239,0.0316767750378061,0.0223549327015414,0.0711601946606681,0.0402871675772139,0.00661693886138814
0.0408786292235348,0.0334696042261769,0.0597670266590206,0.0301362088394771,0.0207076807594174,0.0696797405949453,0.0400907115930936,0.00649934433011096
0.0443411468568639,0.0342974974301252,0.0601496104003405,0.0285643859374081,0.0193043241794376,0.0681154268385477,0.0400062415780299,0.00638826914385973
0.048093533029825,0.0351167862769438,0.0604169576720276,0.0269756385127525,0.0181413477943018,0.0664844773642038,0.0400369667135968,0.00628396030115037
0.0520834476655022,0.0359134438755212,0.0605653672794566,0.025383946229206,0.017211991899876,0.0648046729563898,0.0401842410998546,0.00618671972126333
0.0562586432668546,0.0366739733036638,0.0605917816428567,0.0238027634946655,0.0165065118696333,0.0630940684783852,0.0404475737708337,0.00609688728523737
0.0605675865356193,0.0373856310771155,0.0604937747721644,0.0222448615409017,0.0160124776960204,0.0613707204830182,0.0408246578320896,0.00601482324794797
0.0649600247129033,0.0380366320123366,0.0602695492382519,0.0207221884062615,0.0157151067070025,0.0596524334406318,0.0413114147890099,0.00594089040618507
0.0693874910761348,0.0386163328608591,0.0599179440352084,0.0192457499098972,0.0155976225776122,0.0579565309011365,0.0419020521575468,0.00587543628904282
0.0738037441105815,0.0391153912167998,0.059438454787149,0.0178255141900228,0.0156416334867891,0.0562996567641163,0.0425891344700738,0.00581877562327288
0.0781651333898878,0.0395258953421829,0.0588312660120473,0.0164703414376166,0.0158275217380351,0.0546976105001342,0.0433636686700407,0.0057711734143402
0.0824308845298908,0.0398414609478573,0.0580972927785036,0.01518793947197,0.016134836627945,0.0531652179344064,0.0442152042452418,0.00573282913783961
0.0865632977781557,0.0400572926674168,0.0572382276415423,0.0139848449849477,0.0165426822649891,0.0517162367263312,0.0451319474905834,0.00570386267114726
0.0905278597375429,0.0401702102868675,0.0562565888372904,0.0128664295033745,0.0170300925676775,0.0503632936973961,0.0461008894337356,0.00568430260212222
0.0942932739139437,0.0401786418214449,0.0551557668220891,0.0118369283091236,0.0175763867024017,0.0491178492194455,0.0471079481284106,0.00567407740181662
0.0978314210538536,0.0400825863730535,0.0539400673942648,0.0108994898779242,0.0181614995306442,0.0479901818161868,0.0481381274159299,0.00567300978886216
0.1011172623899,0.0398835490849015,0.0526147497919336,0.010056242966031,0.0187662829043433,0.0469893851642068,0.0491756951527728,0.00568081456101359
0.104128697634149,0.0395844496023095,0.0511860568607188,0.00930837817733947,0.0193727744942883,0.0461233706419855,0.0502043838736059,0.00569710014625978
0.106846388336038,0.0391895057177485,0.0496612328778704,0.00865624049918808,0.0199644309590657,0.0453988709343036,0.0512076158190215,0.00572137400773959
0.109253559043685,0.0387040953570263,0.0480485246957038,0.0080994288952742,0.0205263219341625,0.0448214426869532,0.0521687523938211,0.00575305181786048
0.111335792332662,0.0381346018849539,0.0463571636086843,0.00763689887074253,0.0210452814463654,0.0443954674543954,0.0530713657492065,0.00579147011478024
0.11308083612401,0.037488248877307,0.0445973276145294,0.00726706417701331,0.0215100144184193,0.0441241496632299,0.0538995275291534,0.00583590200513886
0.11447844056838,0.0367729303412449,0.0427800852070891,0.00698789441513372,0.0219111577264331,0.0440095093854277,0.0546381070336876,0.00588557530292323
0.115520237561574,0.0359970411917419,0.0409173216586385,0.00679700599158633,0.022241297348479,0.0440523680443454,0.0552730686611564,0.00593969226202748
0.116199670961108,0.0351693118501578,0.039021647481833,0.00669174440753444,0.0224949449386067,0.0442523267099437,0.0557917573690598,0.00599744987969152
0.116511980388875,0.0342986505769964,0.0371062881752532,0.00666925603736075,0.0226684781277799,0.0446077385334648,0.0561831615433389,0.00605805973744464
0.116454236372977,0.0333939969777616,0.0351849551996594,0.00672654754875505,0.0227600487824405,0.0451156784679412,0.0564381449102418,0.00612076650072835
0.11602542113525,0.0324641893595149,0.0332716998207601,0.00686053140997634,0.0227694630061377,0.0457719144082238,0.0565496420793469,0.00618486442561039
0.115226547735946,0.0315178472835228,0.0313807530958619,0.00706805669581777,0.0226980367732051,0.0465708841819999,0.0565128146035642,0.00624971137903354
0.114060808750031,0.0305632695544838,0.0295263560899101,0.00734592543600411,0.0225484317815244,0.0475056823930321,0.0563251648371797,0.00631473985072849
0.112533742380271,0.0296083473927439,0.0277225840117632,0.00769089571697959,0.022324476919483,0.0485680598619137,0.0559866036660098,0.00637946431695107
0.110653399798439,0.0286604922101893,0.0259831669994405,0.00809967334996714,0.0220309812222328,0.0497484364905499,0.0554994677059147,0.00644348438476721
0.108430495865005,0.0277265766807262,0.0243213099684,0.00856889403915322,0.021673544134564,0.0510359267366055,0.0548684832256476,0.00650648348682094
0.105878527568687,0.0268128867707004,0.0227495145412238,0.00909509786643813,0.0212583683451621,0.0524183764548469,0.0541006772077016,0.00656822337522329
0.103013849328777,0.0259250819770689,0.0212794070321111,0.0096746979276849,0.0207920796218885,0.0538824107107917,0.0532052393530359,0.00662853508219304
0.0998556995461304,0.0250681616408629,0.0199215771113902,0.0103039451841044,0.0202815571967869,0.0554134937655163,0.0521933413163973,0.00668730720262852
0.0964261761532304,0.0242464364352983,0.0186854317098354,0.0109788919189043,0.019733777442622,0.0569960039384388,0.0510779202342513,0.00674447226762175
0.0927501587539408,0.0234635052231131,0.0175790679822883,0.0116953565013686,0.019155672785061,0.0586133265729281,0.0498734325213537,0.00679999181664846
0.0888551724287804,0.0227222377686137,0.0166091682449723,0.0124488923677894,0.018554006886088,0.0602479672790785,0.0485955820939901,0.00685384076175734
0.0847711876714883,0.0220247633215699,0.0157809190615351,0.0132347641610029,0.0179352662991271,0.0618816856353566,0.0472610263679296,0.00690599175822772
0.0805303543740536,0.0213724648734275,0.0150979559378457,0.0140479337858265,0.0173055684097379,0.063495648219596,0.0458870640846347,0.0069564004374303
0.0761666738290548,0.0207659795176456,0.0145623342374477,0.0148830587283348,0.0166705855700095,0.0650705998271339,0.0444913106884287,0.00700499243148576
0.071715618672203,0.0202052064167057,0.0141745259934658,0.0157345043750047,0.0160354856413866,0.0665870523960574,0.0430913687518922,0.00705165309003831
0.0672137140689919,0.0196893247332408,0.0139334413922447,0.0165963713094148,0.015404889381003,0.0680254914675895,0.0417045019592985,0.00709622065939859
0.0626980932236695,0.019216824083527,0.0138364729754612,0.0174625377321186,0.014782845067609,0.0693665989999965,0.040347320811826,0.00713848348087936
0.0582060382986183,0.0187855495416677,0.0138795602086458,0.0183267162766824,0.0141728204495481,0.0705914890877043,0.0390354867472117,0.00717818148482595
0.0537745169834285,0.0183927622394824,0.0140572720299691,0.0191825235958548,0.0135777115812174,0.0716819513317014,0.0377834400046154,0.00721501191892418
0.0494397254667799,0.0180352155138315,0.0143629052101946,0.0200235602364161,0.01299986745965,0.0726206964962418,0.0366041560493502,0.00724863886765741
0.0452366490188916,0.0177092454820618,0.0147885966294142,0.0208434976505941,0.0124411286310509,0.0733916000935528,0.035508935343873,0.00727870575390677
0.04119865074665,0.0174108739513836,0.0153254477201286,0.0216361688708086,0.0119028772696314,0.0739799401975175,0.0345072311100543,0.00730484976156522
0.0373570971785113,0.0171359206610918,0.0159636592148833,0.0223956594981736,0.0113860958435047,0.0743726247788411,0.0336065190660698,0.00732671705019469
0.0337410267971247,0.0168801209908405,0.0166926739190406,0.0231163961570408,0.010891431438083,0.0745584017387954,0.0328122118048512,0.0073439777637887
0.0303768651473177,0.0166392447123801,0.0175013245801564,0.0237932301827055,0.0104192630483707,0.0745280441357538,0.0321276187478094,0.00735634011176663
0.0272881879312848,0.0164092113894786,0.0183779833504821,0.0244215146221316,0.00996976956241767,0.0742745049158723,0.0315539510107718,0.0073635631002386
0.0244955318791784,0.0161861986195102,0.0193107091685159,0.0249971723083584,0.00954299660317948,0.0737930385608395,0.0310903693761461,0.0073654676610886
0.0220162523873795,0.0159667402059678,0.0202873897512448,0.0255167521513141,0.00913892074060199,0.073081289448441,0.0307340727923424,0.00736194585696952
0.0198644267530694,0.0157478121618881,0.0212958757497791,0.0259774707774411,0.00875750970803908,0.0721393467515486,0.0304804241439658,0.00735296762847212
0.018050801875181,0.0155269047666471,0.0223241057494636,0.0263772376032507,0.00839877709350865,0.0709697638435472,0.0303231091025769,0.00733858446708107
0.0165827851053967,0.0153020786782685,0.0233602217649697,0.0267146629959145,0.00806282969764224,0.0695775392644583,0.0302543226305982,0.00731892955367604
0.0154644763135995,0.0150720029930715,0.0243926751985901,0.0269890507303407,0.00774990572277868,0.0679700578086955,0.0302649768261871,0.00729421421907164
0.0146967384751876,0.0148359737496664,0.025410322850662,0.0272003768480457,0.00746040233428764,0.0661569932782517,0.0303449238425906,0.0072647209472114
0.0142773036745877,0.0145939125681366,0.026402512318334,0.0273492568806983,0.00719489180454426,0.0641501773183391,0.0304831884136294,0.00723079345023318
0.0142009113728765,0.0143463464010668,0.0273591566435971,0.0274369026352612,0.00695412619326709,0.0619634401329075,0.0306682054298657,0.00719282450390553
0.0144594758310467,0.0140943702332693,0.0282707991273934,0.0274650693378301,0.00673903109062484,0.0596124280476556,0.030888058304493,0.00715124217128076
0.0150422794639228,0.0138395947083714,0.0291286702277469,0.0274359942302287,0.00655068916721062,0.0571144007539287,0.0311307132686296,0.00710649481593797
0.0159361884969022,0.0135840803675115,0.0299247389089922,0.0273523283801948,0.00639031419708569,0.0544880098643247,0.031384244102487,0.00705903514971202
0.0171258866235271,0.0133302601305508,0.0306517604482997,0.027217064117225,0.00625921620637632,0.051753061046164,0.0316370422068821,0.00700930362768628
0.0185941215496681,0.0130808520272325,0.0313033216202572,0.0270334608747139,0.00615875865593301,0.0489302637317327,0.0318780083635771,0.00695771173988675
0.0203219585676335,0.0128387647282363,0.031873882927402,0.0268049721356584,0.0060903089603866,0.0460409741022648,0.0320967244090519,0.00690462601180788
0.0222890348588959,0.012606998830146,0.0323588167358835,0.0265351755320247,0.0060551839489064,0.0431069377125724,0.0322836046452428,0.00685035366513256
0.0244738082685216,0.0123885469044133,0.0327544399989735,0.0262277070614777,0.00605459192531084,0.0401500372661746,0.0324300275461437,0.00679513080906466
0.026853794920074,0.0121862949830709,0.0330580406028527,0.025886199472082,0.00608957284760006,0.0371920492770306,0.0325284479139575,0.00673911378825794
0.0294057911790865,0.0120029276721658,0.0332678969330443,0.0255142246586781,0.00616093806648344,0.0342544120670341,0.0325724884965191,0.00668237409839741
0.0321060768536364,0.0118408388039315,0.033383290519581,0.0251152403645971,0.00626921111687487,0.0313580072329675,0.0325570091933551,0.00662489716686415
0.0349305976590592,0.0117020495124665,0.0334045110959191,0.0246925421777487,0.00641457111626463,0.028522956909917,0.0324781518718914,0.00656658519501864
0.0378551252911648,0.0115881356857522,0.0333328523584688,0.0242492222013537,0.00659680025258509,0.0257684393409135,0.0323333593836854,0.00650726406909855
0.0408553928896845,0.0115001667169806,0.0331705962229731,0.0237881354571698,0.00681523664125321,0.0231125251026928,0.0321213683808715,0.0064466940716546
0.0439072034182817,0.0114386572075092,0.0329209839475506,0.0233118743288678,0.00706873366966125,0.0205720356669889,0.0318421767491166,0.00638458389923976
0.0469865097439267,0.0114035328010703,0.0325881737286864,0.0228227510193058,0.00735562694267472,0.0181624248625369,0.0314969876125483,0.00632060738180815
0.0500694679633448,0.0113941109010492,0.0321771855715133,0.0223227882840707,0.00767371004072219,0.0158976827314634,0.0310881325537713,0.00625442221832039
0.0531324689967254,0.0114090967668338,0.0316938347034001,0.0218137191012516,0.0080202203804913,0.013790260732814,0.0306189765346522,0.00618568987979037
0.0561521564965915,0.0114465952928427,0.0311446542257273,0.0212969958545125,0.00839183640494578,0.0118510171975633,0.0300938061143672,0.00611409564832933
0.0591054405462101,0.01150413848046,0.0305368067662056,0.0207738089719473,0.00878468708323097,0.0100891820520111,0.0295177019978813,0.00603936776451187
0.0619695159607155,0.0115787281439266,0.0298779847663439,0.0202451144338218,0.00919437440229018,0.00851233975953321,0.0288963975109333,0.00596129488297053
0.0647218924182429,0.0116668928669454,0.029176299955164,0.0197116695051328,0.00961600932402965,0.0071264290745466,0.0282361260331871,0.00587974133148876
0.0673404428426817,0.011764757783718,0.028440164001548,0.0191740760739994,0.0100442615324865,0.00593575785852316,0.0275434620044278,0.00579465982742444
0.0698034764829312,0.0118681253259769,0.0276781636146626,0.0186328306116236,0.0104734230868225,0.00494303113771697,0.0268251611177889,0.00570610124957883
0.0720898429713943,0.0119725645867748,0.0268989338692165,0.0180883791682397,0.0108974857383803,0.00414939062328127,0.0260880052738297,0.00561422100828334
0.074179072413726,0.0120735065922978,0.0261110330313287,0.0175411756118214,0.0113102311936015,0.00355446384482099,0.0253386569789946,0.00551928173065672
0.0760515540056896,0.0121663427369744,0.025322821211395,0.0169917416006858,0.011705333111692,0.00315642096692672,0.02458352696082,0.00542165231733887
0.077688752261458,0.0122465238226184,0.0245423446405381,0.0164407271233926,0.0120764691149394,0.00295203748459833,0.0238286582534695,0.00532180371674939
0.0790734566025654,0.012309657249665,0.0237772273620947,0.0158889703968057,0.0124174405867225,0.002936761246082,0.0230796295865278,0.00522030183148108
0.0801900576849266,0.012351599725804,0.0230345722683844,0.01533755541153,0.0127222977081314,0.00310478241000246,0.022341480208913,0.00511779787734059
0.0810248427899886,0.012368542673494,0.0223208733941458,0.0147878649209245,0.0129854671038219,0.00344910503834748,0.0216186572151647,0.00501501650280682
0.0815663024597718,0.012357087835963,0.0216419411209363,0.0142416266031953,0.013201879482164,0.00396161931377203,0.0209149853236308,0.00491274209788176
0.0818054402012933,0.0123143114239519,0.0210028415516079,0.0137009504484035,0.0133670945125557,0.00463317386287187,0.0202336580812389,0.0048118038214334
0.0817360753311004,0.0122378161472184,0.0204078509248758,0.0131683559394742,0.0134774198139465,0.00545364811611571,0.0195772484983755,0.00471305982755644
0.0813551263463995,0.0121257711841292,0.0198604255919099,0.0126467881276781,0.0135300207005872,0.00641202483559074,0.0189477363127413,0.00461738104687807
0.0806628611668618,0.0119769402769396,0.0193631876235632,0.0121396220804526,0.0135230175809987,0.00749646302946644,0.0183465488937187,0.00452563485278287
0.0796631026178482,0.0117906979720922,0.0189179253911228,0.011650655241007,0.0134555685299071,0.0086943717253022,0.0177746132586157,0.00443866901478364
0.0783633817913127,0.0115670341870003,0.0185256076893179,0.011184086946936,0.01332793518937,0.00999248544188158,0.0172324173635972,0.00435729638366917
0.0767750365078336,0.0113065479201888,0.0181864095980456,0.010744484059179,0.0131415304107525,0.0113769424084826,0.0167200792184834,0.00428228067239162
0.0749132547947555,0.0110104316989875,0.0178997483393468,0.0103367318298027,0.0128989458832973,0.0128333664874337,0.0162374221567789,0.0042143235339881
0.0727970629154697,0.0106804488830737,0.0176643276109802,0.00996596986382601,0.0126039580079821,0.0143469535797744,0.0157840541390169,0.0041540530192445
0.0704492561336299,0.0103189059753287,0.0174781890654295,0.00963751406823638,0.0122615109136705,0.015902563279976,0.0153594489435243,0.004102013461072
0.0678962713433454,0.00992862173136278,0.0173387697290373,0.00935676647610348,0.0118776765082482,0.0174848165943755,0.0149630276008105,0.00405865684531986
0.0651680038353558,0.00951289442753276,0.0172429642982678,0.00912911543624322,0.0114595922234414,0.0190782003904664,0.0145942391504301,0.004024335757089
0.062297573472499,0.00907546822409072,0.0171871914243568,0.00895982872658614,0.0110153772853999,0.0206671787601881,0.0142526404202109,0.00399929801327324
0.0593210463719267,0.0086204990801867,0.0171674631414429,0.00885394200011921,0.0105540283351144,0.0222363108907779,0.0139379748175963,0.00398368307520935
0.0562771166488,0.00815252021288033,0.0171794562849263,0.00881614503517339,0.0100852956665488,0.023770374712093,0.0136502499698252,0.00397752024506354
0.0532067509736936,0.00767640666542504,0.0172185843078113,0.0088506685049277,0.00961954213204935,0.0252544955795708,0.0133898135158344,0.0039807284994172
0.0501527981456853,0.00719733819204611,0.0172800679860197,0.00896117413760578,0.00916758737590342,0.0266742793409164,0.0131574257282295,0.00399311770657634
0.047159565941723,0.00672075956048649,0.0173590043053191,0.00915065103095635,0.00874054017353558,0.0280159489962107,0.0129543271802378,0.00401439098793792
0.0442723669858014,0.00625233757615946,0.0174504339740732,0.00942132055171233,0.00834962143954981,0.0292664835179988,0.0127822993829791,0.00404414809927466
0.0415370338895063,0.00579791449734141,0.0175494089768621,0.00977455189404848,0.00800598036720734,0.030413756417095,0.0126437161656906,0.00408188985450042
0.0389994027457426,0.00536345783432692,0.0176510619494722,0.0102107900468155,0.00772050629669958,0.0314466709812167,0.0125415835674885,0.00412702370315668
0.0367047647459454,0.00495500664286616,0.0177506788051489,0.0107294975364565,0.00750363914136333,0.0323552891288847,0.0124795661587747,0.0041788705362073
0.0346972880423807,0.00457861432512857,0.0178437752909812,0.011329110923987,0.00736518140933312,0.0331309513500829,0.0124619979195785,0.0042366726761131
0.0330194145935452,0.00424028787737447,0.0179261773760536,0.0120070128207694,0.00731411497197586,0.0337663858737427,0.0124938758507993,0.00429960294478112
0.0317112380810892,0.00394592368189489,0.0179941045918522,0.0127595201975711,0.00735842569309263,0.0342558055648876,0.0125808342664812,0.00436677473759587
0.0308098689393652,0.00370124027407884,0.0180442546185058,0.0135818899073337,0.00750493881861772,0.034594990697241,0.0127290976043932,0.00443725308745365
0.0303487930533218,0.00351170883181982,0.0180738866737608,0.0144683424827389,0.00775916774469919,0.0347813546631117,0.0129454100745788,0.00451006668414836
0.0303572329420729,0.00338248226705535,0.0180809008380521,0.015412105245018,0.008125178620932,0.0348139887397942,0.0132369414267805,0.00458422069250206
0.0308595233959026,0.00331832378115918,0.0180639104812065,0.0164054754420032,0.00860547324620671,0.0346936821499485,0.0136111690254122,0.00465871009278099
0.0318745162602711,0.00332353578554105,0.0180223054002889,0.0174399035286417,0.00920089279197265,0.0344229149009732,0.0140757367782051,0.00473253324785344
0.0334150304972417,0.00340189022159555,0.0179563038981091,0.0185060960052574,0.0099105449329466,0.0340058227681836,0.0146382914859778,0.0048047054314992
0.0354873635718068,0.00355656139408853,0.0178669924694157,0.019594136563647,0.0107317568853442,0.0334481355345467,0.0153062977017542,0.00487427201433089
0.038090879069789,0.00379006240644393,0.0177563516924229,0.0206936236091319,0.0116600565929131,0.0327570904001756,0.0160868334481505,0.00494032089596193
0.0412176841152992,0.00410418629718901,0.0176272664462171,0.021793821496606,0.0126891838608413,0.0319413220337609,0.0169863706779527,0.00500199376515633
0.0448524089578557,0.00449995311344499,0.0174835183640599,0.022883822131733,0.0138111326707777,0.0310107300934253,0.0180105455655923,0.00505849593282366
0.0489720998160736,0.00497756433531642,0.0173297589161935,0.0239527131285696,0.0150162253000514,0.0299763254932073,0.0191639241467613,0.00510910467714421
0.0535462344426757,0.0055363661576527,0.0171714625298574,0.0249897486477571,0.0162932182822402,0.0288500581905722,0.0204497685744429,0.00515317609020087
0.0585368677802986,0.00617482307013001,0.0170148602926838,0.0259845193889282,0.0176294396951745,0.0276446310128812,0.0218698090691767,0.00519015034420261
0.0638989125148552,0.00689050299121367,0.0168668555957367,0.0269271187829936,0.0190109566841569,0.0263733052492599,0.0234240269864723,0.00521955532843573
0.0695805564713083,0.00768007499794038,0.016734923217181,0.0278083028306075,0.0204227714215197,0.0250497039506797,0.0251104551518084,0.00524100880890112
0.0755238157702222,0.00853932045270725,0.0166269929741507,0.0286196408287517,0.0218490428662996,0.0236876181202478,0.0269250023915755,0.00525421948829381
0.081665219399808,0.00946315801200044,0.0165513189009187,0.0293536534924302,0.0232733309104324,0.0223008198511143,0.0288613097152798,0.00525898743826433
0.0879366172083568,0.010445682612253,0.0165163353597567,0.0300039346268969,0.0246788589489807,0.0209028856745656,0.0309106456456906,0.00525520428178396
0.0942660994249338,0.0114802180908712,0.0165305023515144,0.0305652532003498,0.026048790612787,0.0195070330150726,0.0330618476028172,0.0052428533376199
0.100579012237926,0.0125593826546271,0.0166021431631849,0.0310336342114945,0.0273665162975198,0.0181259724948993,0.0353013150612493,0.00522200986759634
0.106799051249098,0.0136751660532947,0.0167392779862927,0.0314064185262669,0.0286159451112317,0.0167717786795139,0.03761305876054,0.00519284160987835
0.112849413058374,0.0148190171348522,0.0169494570372592,0.031682303158264,0.0297817977812057,0.0154557815592988,0.0399788088670351,0.00515560986519983
0.118653984786769,0.0159819404500599,0.0172395962330822,0.0318613637119945,0.0308498956778654,0.0141884805445311,0.0423781835858282,0.00511067144953328
0.124138551528481,0.0171546006597014,0.0176158182208577,0.0319450599241497,0.0318074402305309,0.0129794820103091,0.04478891806018,0.0050584817780048
0.129232001537994,0.018327433532322,0.0180833017225203,0.0319362243910811,0.0326432759113277,0.0118374605478626,0.0471871513542359,0.00499959917872697
0.133867507042691,0.0194907621194561,0.0186461424125016,0.0318390344639887,0.0333481294566826,0.0107701431968635,0.0495477670252835,0.00493469029128811
0.137983654470761,0.0206349161561939,0.0193072284682409,0.0316589678081109,0.0339148185347094,0.00978431518670642,0.0518447803790688,0.00486453617396347
0.141525494233392,0.0217503521165966,0.020068133373775,0.0314027428392162,0.0343384244991363,0.00888584517414491,0.0540517631110345,0.0047900385819448
0.144445480530341,0.0228277711281468,0.0209290278170514,0.0310782458480588,0.0346164256493268,0.0080797276015935,0.0561422941806021,0.00471222579834549
0.146704276656521,0.0238582322827232,0.0218886117807799,0.0306944469209122,0.0347487887398277,0.00737013950522791,0.0580904249415414,0.00463225740783512
0.148271409257085,0.0248332596135944,0.0229440671809403,0.0302613066651952,0.0347380166382106,0.00676050875716807,0.0598711468543427,0.00455142749399575
0.149125762792371,0.0257449417893175,0.0240910310321535,0.0297896751556867,0.0345891493621046,0.00625359034946487,0.0614608511316684,0.00447116587403623
0.149255909491929,0.0265860239554522,0.0253235892709496,0.0292911833892063,0.0343097157958796,0.00585154710343244,0.0628377705028301,0.0043930370739285
0.14866026866003,0.0273499908070172,0.0266342915378491,0.0287781262758708,0.0339096349419111,0.00555603122359254,0.0639823928467175,0.00431873671236927
0.147347086782295,0.028031139224064,0.0280141868868215,0.0282633355458772,0.0334010680101945,0.0053682633796062,0.0648778349010334,0.00425008486190149
0.145334232790852,0.0286246385267223,0.02945288002733,0.0277600412069641,0.0327982250136816,0.00528910642479859,0.0655101638950584,0.00418901598131858
0.142648811487549,0.0291265769446652,0.0309386081817327,0.0272817211517843,0.0321171309421503,0.00531913137603288,0.065868657362116,0.0041375652261422
0.139326608850594,0.0295339939418381,0.0324583397918363,0.0268419397940318,0.0313753565802079,0.00545867380541503,0.065945995865968,0.00409785123731775
0.135411391426669,0.0298448990741966,0.033997897229491,0.0264541777594706,0.0305917181828834,0.00570787922367459,0.0657383880324478,0.00407205572830726
0.130954084920584,0.0300582785543813,0.0355421055780209,0.026131655253052,0.0297859499113288,0.00606673624780274,0.0652456300409226,0.00406240023053854
0.12601185440454,0.0301740903034883,0.0370749685699679,0.0258871514820051,0.02897835371827,0.00653509634126734,0.0644711015775274,0.00407112028197549
0.120647105081897,0.030193247306865,0.0385798717467918,0.0257328216806706,0.0281894328048993,0.00711267898708129,0.0634216988917998,0.00410043733465346
0.114926422355024,0.0301175885454191,0.0400398120056479,0.0256800127531551,0.0274395161532882,0.00779906158952247,0.062107705859162,0.00415252873801382
0.108919472349915,0.0299498371312595,0.0414376514085836,0.0257390788415002,0.026748382360282,0.00859365417654937,0.0605426062286608,0.00422949620439806
0.102697886768183,0.0296935462575354,0.042756391436596,0.0259191990183214,0.0261348907297001,0.00949565988075389,0.058742843279005,0.00433333309843499
0.0963341573023525,0.0293530346162131,0.0439794622403995,0.0262282003654228,0.0256166266316923,0.0105040229387878,0.0567275356473422,0.00446589079873347
0.0899005640986108,0.02893331343735,0.0450910198001257,0.0266723905819652,0.0252095673769157,0.0116173663193029,0.0545181592635391,0.00462884439320144
0.0834681598345404,0.0284400068848207,0.0460762421788259,0.0272564047650713,0.024927774641417,0.0128339210349872,0.0521382047043904,0.00482365806563347
0.0771058264249387,0.0278792666736453,0.0469216150991002,0.0279830710358321,0.024783119522805,0.0141514490959814,0.0496128172189244,0.00505155058593476
0.0708794164448301,0.0272576815038959,0.0476151976034745,0.0288532991954043,0.0247850462216886,0.0155671622905037,0.0469684246169739,0.00531346124912881
0.0648509873898127,0.026582182510698,0.0481468602235695,0.0298659955876381,0.0249403798611227,0.0170776394795689,0.044232357405981,0.00561001653059204
0.0590781341693251,0.025859946894249,0.0485084897572466,0.0310180061168023,0.0252531829989703,0.0186787455783671,0.0414324659978544,0.00594149781945351
0.0536134234079261,0.0250983025513731,0.0486941551658179,0.0323040884930219,0.0257246640995089,0.02036555553715,0.0385967408724857,0.00630781086503681
0.0485039318037381,0.0243046363981126,0.0487002283275159,0.0337169145406075,0.026353139888244,0.0221322862784574,0.0357529425354474,0.00670845789252815
0.0437908896417856,0.0234863082433991,0.048525453582274,0.0352471037228758,0.0271340522267807,0.0239722390540932,0.0329282482757593,0.00714251355256265
0.0395094294074766,0.022650571321199,0.0481709625298961,0.0368832896175455,0.0280600388864924,0.0258777545572855,0.0301489218044221,0.00760860585046402
0.0356884381952191,0.0218045003950942,0.0476402345102214,0.0386122214657009,0.0291210564085497,0.0278401833657991,0.0274400103369247,0.00810490300711595
0.0323505111596137,0.0209549285124164,0.046939006796548,0.0404189026045693,0.0303045522222742,0.0298498745503875,0.0248250725448395,0.00862910704233599
0.0295120015072487,0.0201083936462958,0.0460751401676945,0.0422867664161972,0.0315956824261944,0.0318961851429176,0.0223259402660219,0.00917845483190329
0.0271831606185027,0.0192710963682683,0.0450584450402653,0.0441978890253927,0.0329775710320885,0.0339675123676879,0.0199625165288738,0.00974972740451108
0.025368360382013,0.018448869217976,0.0439004727693812,0.0461332369265117,0.0344316057497367,0.0360513493804714,0.0177526119528853,0.0103392682327758
0.0240663890676691,0.0176471575964095,0.0426142776593943,0.0480729466215533,0.0359377642674889,0.038134364357151,0.0157118207964706,0.0109430111854669
0.0232708118529754,0.0168710110593193,0.0412141571234164,0.0499966317172231,0.0374749637524027,0.0402025023341671,0.0138534368854733,0.0115565186331227
0.0229703869822634,0.0161250832143426,0.0397153790486477,0.0518837112288092,0.0390214257077496,0.0422411090578056,0.012188408527927,0.0121750299437286
0.0231495280192932,0.0154136382004707,0.0381339058219525,0.0537137518913689,0.0405550486375825,0.0442350760258429,0.0107253304747972,0.0127935202790782
0.0237888016816522,0.0147405618931454,0.0364861234346818,0.0554668169715051,0.0420537818295825,0.0461690056974297,0.00947047014960966,0.0134067692018722
0.0248654496646712,0.0141093763209459,0.0347885824528205,0.0571238135952995,0.0434959943406194,0.0480273952950021,0.00842782479618114,0.0140094381048717
0.0263539218700721,0.0135232559681431,0.033057756372591,0.0586668292262625,0.0448608332416882,0.049794836476063,0.00759920586464936,0.0145961548581102
0.0282264079569097,0.0129850444308064,0.0313098219328128,0.0600794462239775,0.0461285641086902,0.0514562263209755,0.00698434680708578,0.0151616034238604
0.0304533547020602,0.0124972695908585,0.0295604648158015,0.0613470231882006,0.0472808856790783,0.0529969832044282,0.00658103040262801,0.0157006157058328
0.0330039581030268,0.0120621556433723,0.0278247126505339,0.0624569338185619,0.0483012108879424,0.0544032602409187,0.00638523168868548,0.0162082627285621
0.0358466204580933,0.0116816309615438,0.0261167957537638,0.0633987575679192,0.0491749083076275,0.0556621495361258,0.00639127244652454,0.0166799424322697
0.0389493630043612,0.0113573314481745,0.024450035003004,0.064164419887962,0.049889500626935,0.0567618721668814,0.00659198299238732,0.0171114618397177
0.0422801852730118,0.0110905992545071,0.0228367554253175,0.0647482815922241,0.0504348191477723,0.0576919509051338,0.00697886700913096,0.0174991118673988
0.0458073650457051,0.010882476624644,0.0212882231248313,0.0651471762398635,0.0508031142396524,0.0584433641042521,0.00754226553835814,0.0178397332587707
0.049499697429193,0.0107336947538053,0.0198146022137555,0.0653603937939633,0.0509891209278815,0.0590086788986911,0.00827151701710732,0.0181307718399622
0.0533266761750804,0.0106446581272329,0.0184249281094026,0.0653896106277789,0.0509900778373761,0.0593821603727531,0.00915511121945178,0.0183703210349917
0.0572586228808708,0.0106154254599844,0.0171270940740517,0.0652387698497735,0.0508056984415204,0.0595598527803075,0.0101808359271513,0.0185571499756253
0.0612667697698792,0.0106456886601898,0.0159278487483361,0.0649139200269254,0.0504380959783724,0.0595396303469615,0.0113359158622449,0.0186907165624187
0.0653233017546699,0.0107347511100319,0.0148328030536256,0.0644230229792544,0.0498916663712302,0.0593212179170931,0.0126071436706258,0.0187711659934168
0.0694013652806148,0.0108815064228688,0.0138464448275088,0.0637757414878882,0.0491729357701405,0.0589061844508311,0.0139810026283602,0.0187993160409387
0.0734750543426433,0.0110844190182544,0.0129721591730549,0.0629832156879856,0.0482903799623818,0.0582979140136411,0.0154437807176979,0.0187766303865561
0.0775193866296585,0.0113415082214647,0.0122122524959616,0.0620578338857724,0.0472542217506306,0.0575015587365318,0.0169816760903667,0.018705180819409
0.0815102838825818,0.0116503378649867,0.0115679788327333,0.0610130008990877,0.0460762107206883,0.0565239763466182,0.018580894605602,0.0185875987798904
0.0854245697333341,0.0120080133489879,0.0110395680323356,0.0598629052240877,0.0447693890562025,0.055373652602782,0.0202277408663343,0.0184270169623245
0.0892399955619299,0.0124111877644846,0.0106262561933667,0.0586222855135604,0.0433478473265011,0.0540606077122128,0.0219087047470293,0.0182270023026929
0.092935300931247,0.0128560781643444,0.0103263191037527,0.0573061971595432,0.0418264749357868,0.0525962857319052,0.023610545617187,0.017991482339567
0.0964903110152213,0.013338492588662,0.0101371093021629,0.0559297810840905,0.0402207106487725,0.0509934267100775,0.0253203761776793,0.0177246673134521
0.0998860697580577,0.0138538680251202,0.010055097285152,0.0545080385425867,0.0385462988923275,0.0492659225157398,0.0270257470362486,0.0174309702162265
0.103105004453668,0.0143973190417947,0.0100759175442772,0.0530556167851748,0.0368190570888912,0.0474286585331466,0.028714732145165,0.0171149264248262
0.106131115187157,0.0149636963510556,0.0101944202367186,0.0515866098794285,0.0350546579905573,0.0454973441415414,0.0303760144032765,0.0167811141127092
0.108950181315573,0.0155476541011366,0.0104047291202591,0.0501143774085032,0.0332684292287576,0.0434883345840109,0.0319989702155634,0.0164340766677892
0.11154997691005,0.016143724338873,0.0107003060695279,0.0486513830507534,0.0314751709490349,0.0414184453862426,0.0335737515841304,0.016078248688096
0.113920487531053,0.0167463969091101,0.0110740222585292,0.0472090558077147,0.0296889919157963,0.0393047591447536,0.0350913643436649,0.0157178874444347
0.116054121114283,0.0173502030247841,0.0115182358340453,0.0457976777921524,0.0279231646560567,0.0371644245800558,0.0365437413822448,0.01535701170776
0.117945904948175,0.0179498006945356,0.012024875567618,0.0444263027373961,0.0261900006466151,0.0350144491875562,0.0379238099286525,0.0149993494123475
0.119593657717737,0.0185400598938173,0.0125855298193001,0.0431027081775462,0.0245007467897032,0.0328714887895138,0.0392255519113412,0.0146482949473967
0.120998121554303,0.0191161448095232,0.0131915402556076,0.0418333821865158,0.0228655041132083,0.0307516388577354,0.0404440556229245,0.0143068763077553
0.122163037503961,0.0196735901651624,0.0138340998944516,0.0406235434843138,0.0212931687100962,0.0286702329154192,0.0415755556272833,0.0139777320125505
0.123095150657562,0.02020836893848,0.0145043549175793,0.0394771916802401,0.0197913938908041,0.0266416525482913,0.0426174571005998,0.0136630975324544
0.123804137467433,0.0207169496090495,0.0151935092743705,0.038397182834136,0.0183665719599501,0.0246791524488096,0.0435683413574166,0.0133648008709069
0.124302455106093,0.0211963420238142,0.0158929307399564,0.0373853249354475,0.0170238340000898,0.0227947033551489,0.044427950961417,0.0130842668797432
0.124605118009089,0.0216441315485762,0.0165942570170387,0.0364424879138647,0.0157670663007034,0.0209988556551239,0.0451971548242988,0.0128225298132735
0.124729407485242,0.0220585010444563,0.0172895005790753,0.0355687224366293,0.0145989423404445,0.0193006264263133,0.0458778951596981,0.0125802534559937
0.124694517635976,0.0224382397189329,0.0179711509958541,0.0347633807744029,0.013520969283458,0.0177074125587382,0.0464731183242834,0.0123577577943
0.124521140132944,0.0227827379120292,0.0186322732120582,0.0340252326877068,0.0125335476383004,0.0162249322821262,0.0469866903891734,0.0121550506942157
0.124230994359754,0.0230919676493906,0.0192665996938001,0.0333525705831327,0.0116360421734551,0.0148571968879557,0.0474232969873982,0.0119718627218546
0.123846316172924,0.0233664499282252,0.0198686139886144,0.0327433006648297,0.0108268618462017,0.0136065137179219,0.0477883269012517,0.0118076833316057
0.123389324817758,0.0236072106133272,0.0204336233311961,0.0321950193621009,0.0101035466496776,0.0124735206348301,0.0480877401015406,0.0116617970807305
0.122881690357077,0.0238157270011395,0.0209578181682181,0.0317050758322135,0.00946285977413344,0.0114572512801078,0.0483279229583145,0.0115333190963341
0.122344022148871,0.0239938665769488,0.0214383163683313,0.031270621338395,0.00890088400425837,0.0105552295437391,0.0485155353150558,0.0114212294759922
0.121795395230334,0.0241438190580037,0.0218731894768436,0.0308886458223488,0.00841312153328295,0.00976359088226999,0.0486573552097039,0.0113244064358028
0.121252929837501,0.0242680230822935,0.0222614684762527,0.0305560025021116,0.00799459625851152,0.00907722741277491,0.0487601266230993,0.0112416577738865
0.120731439553377,0.024369089637179,0.0226031274351224,0.0302694228278844,0.00763995741424828,0.00848995308273029,0.0488304140626033,0.0111717498807963
0.120243163125701,0.0244497249660593,0.0228990445440932,0.0300255257371563,0.00734358342943806,0.0079946847633437,0.0488744665368797,0.0111134334889815
0.119797591893058,0.024512655731961,0.023150940505778,0.0298208260719218,0.00709968511370482,0.00758363493384508,0.0488980934802369,0.0110654656725323
0.11940139979089,0.0245605585791904,0.0233612941430118,0.0296517468654743,0.00690240743569666,0.00724851169188277,0.0489065561104524,0.0110266281236127
0.119058478562108,0.0245959956066773,0.0235332356580899,0.029514639112435,0.00674592909121494,0.0069807220070676,0.0489044787616914,0.0109957422285636
0.118770077246482,0.0246213572406118,0.0236704196999861,0.0294058112226995,0.00662455880604279,0.00677157425060633,0.048895785114075,0.0109716817381386
0.11853504065543,0.0246388143536307,0.0237768824569285,0.0293215690804863,0.00653282706852995,0.0066124759479667,0.0488836633877693,0.0109533837369285
0.1183501362661,0.0246502816604174,0.0238568882760152,0.0292582664540025,0.00646557177267685,0.00649512245560711,0.0488705626350697,0.0109398582551603
0.118210454762545,0.0246573939917987,0.0239147714088161,0.0292123643646256,0.00641801599001075,0.00641167205581276,0.0488582202554999,0.0109301965673438
0.118109866972797,0.0246614961436992,0.0239547783742303,0.0291804970033607,0.00638583582880231,0.00635490286180096,0.0488477193973782,0.0109235781644876
0.118041517762123,0.0246636462324568,0.0239809171441524,0.029159540960442,0.00636521617472574,0.00631834683538342,0.0488395737122242,0.0109192764677893
0.117998333838659,0.0246646320492054,0.0239968206120555,0.0291466838439317,0.00635289197626101,0.00629639605490261,0.0488338355348328,0.0109166634015528
0.117973517214771,0.024664999465651,0.0240056327727039,0.0291394875629998,0.00634617253095024,0.00628437610700985,0.0488302217011444,0.0109152128255615
0.117960991066629,0.0246650911786716,0.0240099261291409,0.0291359403966485,0.00634294597405398,0.00627858113784978,0.0488282488397513,0.0109145024779353
0.11795576095717,0.0246650929264354,0.024011658145919,0.0291344905551994,0.00634166099153588,0.00627626473406318,0.0488273672127244,0.0109142135619703
0.117954150942918,0.0246650829967033,0.0240121738264036,0.0291340526557862,0.00634128267192528,0.00627558044803353,0.048827079289262,0.0109141265941868
