Trial,Task,APL,FCR,FDS,FDP,ED,EI,ECU,ECR,Marker_1_x,Marker_1_y,Marker_1_z,Marker_2_x,Marker_2_y,Marker_2_z,Marker_3_x,Marker_3_y,Marker_3_z,Marker_4_x,Marker_4_y,Marker_4_z,Marker_5_x,Marker_5_y,Marker_5_z,Marker_6_x,Marker_6_y,Marker_6_z,Marker_7_x,Marker_7_y,Marker_7_z,Marker_8_x,Marker_8_y,Marker_8_z,Marker_9_x,Marker_9_y,Marker_9_z,Marker_10_x,Marker_10_y,Marker_10_z,Marker_11_x,Marker_11_y,Marker_11_z,Marker_12_x,Marker_12_y,Marker_12_z,Marker_13_x,Marker_13_y,Marker_13_z,Marker_14_x,Marker_14_y,Marker_14_z,Marker_15_x,Marker_15_y,Marker_15_z,Marker_16_x,Marker_16_y,Marker_16_z,Marker_17_x,Marker_17_y,Marker_17_z,Marker_18_x,Marker_18_y,Marker_18_z,Marker_19_x,Marker_19_y,Marker_19_z,Marker_20_x,Marker_20_y,Marker_20_z,Marker_21_x,Marker_21_y,Marker_21_z,Marker_22_x,Marker_22_y,Marker_22_z,Marker_23_x,Marker_23_y,Marker_23_z
4,1,0.000585653,0.0031888,0.00179813,0.0481844,-0.00223055,0.000403304,0.000497115,0.0433217,105.889,6.19862,15.954,97.9926,-13.3877,9.04464,88.9342,-26.1101,-3.50578,83.0495,-38.6534,-14.0763,150.277,1.88168,15.7376,172.663,-2.90858,14.4416,192.68,-6.01046,13.1967,149.726,-24.9844,-0.315462,176.258,-29.7203,-5.75532,193.926,-35.8851,-11.5538,133.634,-41.1895,-9.49551,154.62,-51.5622,-12.136,172.947,-58.3814,-10.1552,110.463,-53.9927,-18.3668,126.835,-63.1797,-20.237,137.059,-76.5106,-25.4223,85.0064,63.0066,-0.0182082,114.529,64.6828,3.57456,139.475,71.3024,-6.24685,39.2553,-0.76684,4.10286,50.6792,44.1846,-4.29001,35.9395,-22.5372,-12.4653,0.275274,1.75989,0.242555
4,1,0.000976702,0.00357474,0.00379403,0.0484987,-0.0012353,0.000420231,0.000591064,0.0727026,105.883,6.1912,15.9858,97.987,-13.4016,9.0728,88.9292,-26.111,-3.4803,83.0485,-38.6662,-14.052,150.265,1.87158,15.7842,172.653,-2.91306,14.4966,192.667,-6.021,13.2591,149.721,-24.9836,-0.262422,176.252,-29.738,-5.69268,193.925,-35.8991,-11.4847,133.63,-41.1982,-9.44867,154.617,-51.569,-12.0782,172.948,-58.3999,-10.0866,110.463,-53.9986,-18.3325,126.836,-63.188,-20.1868,137.061,-76.5232,-25.362,85.0108,62.9974,-0.0143609,114.536,64.671,3.58453,139.489,71.2812,-6.24283,39.2527,-0.765923,4.10147,50.6791,44.1856,-4.2898,35.9383,-22.5381,-12.4652,0.276627,1.75972,0.242204
4,1,0.00134711,0.00393857,0.00572429,0.04871,-0.000272243,0.000438244,0.000678765,0.10103,105.876,6.18382,16.0188,97.981,-13.4154,9.10213,88.9238,-26.1119,-3.45374,83.0471,-38.6791,-14.0269,150.252,1.86136,15.8328,172.643,-2.91773,14.5537,192.654,-6.03185,13.3241,149.715,-24.9829,-0.207321,176.245,-29.7561,-5.62782,193.924,-35.9134,-11.4127,133.626,-41.2072,-9.3999,154.613,-51.5761,-12.0181,172.949,-58.4185,-10.0155,110.462,-54.0046,-18.2967,126.837,-63.1966,-20.1347,137.063,-76.5361,-25.2997,85.0154,62.9878,-0.0102154,114.543,64.6587,3.59493,139.502,71.2591,-6.23833,39.2496,-0.765011,4.10005,50.679,44.1867,-4.28959,35.937,-22.5391,-12.4651,0.278043,1.75957,0.241842
4,1,0.00169399,0.00427741,0.0075767,0.048809,0.000651969,0.000457618,0.000759518,0.128101,105.869,6.1765,16.0528,97.9745,-13.4292,9.13262,88.918,-26.1128,-3.42608,83.0455,-38.6921,-14.001,150.238,1.85105,15.8832,172.632,-2.92257,14.613,192.64,-6.043,13.3918,149.709,-24.9823,-0.15017,176.238,-29.7744,-5.56075,193.922,-35.9281,-11.338,133.622,-41.2164,-9.34923,154.609,-51.5832,-11.9558,172.949,-58.4373,-9.94195,110.462,-54.0109,-18.2594,126.838,-63.2054,-20.0809,137.064,-76.5492,-25.2354,85.0202,62.9779,-0.00576523,114.551,64.6459,3.60574,139.516,71.236,-6.23333,39.2463,-0.76411,4.0986,50.6789,44.1878,-4.28936,35.9356,-22.54,-12.4649,0.279524,1.75944,0.241469
4,1,0.0020148,0.00458871,0.00934034,0.0487878,0.00153127,0.000478663,0.000832726,0.153727,105.862,6.16926,16.0879,97.9676,-13.4429,9.16427,88.9119,-26.1136,-3.39734,83.0435,-38.7051,-13.9742,150.223,1.84066,15.9356,172.621,-2.92759,14.6743,192.625,-6.05443,13.462,149.702,-24.9818,-0.0909889,176.231,-29.7931,-5.49151,193.92,-35.9431,-11.2605,133.618,-41.2257,-9.29665,154.605,-51.5906,-11.8913,172.95,-58.4562,-9.86597,110.462,-54.0173,-18.2206,126.839,-63.2144,-20.0253,137.065,-76.5627,-25.1691,85.0251,62.9678,-0.00100489,114.559,64.6327,3.61698,139.529,71.212,-6.2278,39.2425,-0.763223,4.09713,50.6787,44.1889,-4.28913,35.9342,-22.541,-12.4648,0.281072,1.75934,0.241084
4,1,0.00230738,0.00487031,0.0110057,0.0486398,0.00236028,0.000501724,0.000897905,0.177745,105.853,6.16211,16.1241,97.9602,-13.4566,9.19707,88.9055,-26.1144,-3.36753,83.0412,-38.7183,-13.9467,150.208,1.83022,15.9898,172.609,-2.93278,14.7378,192.61,-6.06613,13.5349,149.695,-24.9814,-0.0297983,176.224,-29.812,-5.42013,193.918,-35.9585,-11.1803,133.613,-41.2352,-9.24219,154.6,-51.598,-11.8247,172.95,-58.4753,-9.7876,110.462,-54.024,-18.1804,126.84,-63.2236,-19.968,137.067,-76.5765,-25.1009,85.0301,62.9573,0.00407056,114.567,64.6191,3.62865,139.542,71.1869,-6.22172,39.2385,-0.762357,4.09564,50.6785,44.19,-4.28889,35.9328,-22.542,-12.4646,0.282688,1.75926,0.240687
4,1,0.00256997,0.00512046,0.0125649,0.0483596,0.00313436,0.000527176,0.00095469,0.200012,105.844,6.15506,16.1612,97.9523,-13.4701,9.231,88.8987,-26.1152,-3.33665,83.0386,-38.7315,-13.9184,150.193,1.81973,16.0458,172.597,-2.93814,14.8032,192.595,-6.07809,13.6103,149.688,-24.981,0.0333734,176.216,-29.8311,-5.34664,193.915,-35.9742,-11.0974,133.609,-41.2448,-9.18586,154.595,-51.6056,-11.7559,172.95,-58.4944,-9.70687,110.461,-54.0308,-18.1388,126.841,-63.2329,-19.909,137.068,-76.5905,-25.0309,85.0353,62.9465,0.00946522,114.575,64.605,3.64075,139.555,71.1609,-6.21504,39.234,-0.761515,4.09413,50.6782,44.1911,-4.28865,35.9314,-22.543,-12.4644,0.284374,1.75921,0.240278
4,1,0.00280126,0.00533784,0.0140115,0.0479436,0.00384967,0.000555421,0.00100284,0.220411,105.835,6.14813,16.1993,97.9439,-13.4834,9.26605,88.8915,-26.1159,-3.30472,83.0356,-38.7448,-13.8893,150.176,1.80921,16.1037,172.584,-2.94366,14.8707,192.579,-6.0903,13.6882,149.681,-24.9807,0.0984932,176.208,-29.8504,-5.27108,193.912,-35.9902,-11.0118,133.604,-41.2546,-9.1277,154.591,-51.6133,-11.685,172.949,-58.5135,-9.62385,110.461,-54.0378,-18.0957,126.841,-63.2425,-19.8483,137.069,-76.6047,-24.9589,85.0406,62.9354,0.0151824,114.583,64.5904,3.65328,139.568,71.1339,-6.20775,39.2292,-0.760703,4.09261,50.678,44.1921,-4.2884,35.9299,-22.5441,-12.4643,0.286132,1.75918,0.239856
4,1,0.00300038,0.00552159,0.0153409,0.0473901,0.0045032,0.000586879,0.00104225,0.238853,105.824,6.14132,16.2384,97.935,-13.4966,9.30219,88.884,-26.1165,-3.27176,83.0323,-38.758,-13.8595,150.16,1.79868,16.1633,172.57,-2.94934,14.9401,192.562,-6.10275,13.7686,149.673,-24.9805,0.165522,176.2,-29.87,-5.1935,193.909,-36.0065,-10.9237,133.598,-41.2645,-9.06774,154.586,-51.6211,-11.612,172.949,-58.5327,-9.53857,110.46,-54.0449,-18.0512,126.841,-63.2523,-19.7861,137.07,-76.6192,-24.8852,85.046,62.9241,0.0212243,114.591,64.5755,3.66623,139.581,71.106,-6.19982,39.224,-0.759926,4.09106,50.6776,44.1932,-4.28814,35.9284,-22.5451,-12.4641,0.287963,1.75918,0.239422
4,1,0.0031669,0.00567126,0.0165499,0.0466989,0.0050928,0.000621984,0.00107292,0.255272,105.814,6.13466,16.2784,97.9256,-13.5096,9.33941,88.8762,-26.1171,-3.23777,83.0287,-38.7713,-13.8289,150.142,1.78817,16.2247,172.556,-2.95517,15.0115,192.545,-6.11541,13.8514,149.664,-24.9803,0.234416,176.191,-29.8896,-5.11396,193.905,-36.023,-10.833,133.593,-41.2746,-9.00601,154.58,-51.629,-11.537,172.948,-58.5519,-9.4511,110.46,-54.0522,-18.0054,126.841,-63.2622,-19.7222,137.071,-76.6338,-24.8097,85.0515,62.9125,0.0275924,114.6,64.56,3.67961,139.593,71.0771,-6.19122,39.2185,-0.75919,4.08949,50.6773,44.1942,-4.28787,35.9269,-22.5462,-12.4639,0.289867,1.7592,0.238974
4,1,0.00330085,0.00578683,0.0176371,0.0458721,0.00561715,0.000661176,0.00109499,0.269631,105.802,6.12815,16.3193,97.9157,-13.5224,9.37767,88.868,-26.1176,-3.20279,83.0248,-38.7846,-13.7977,150.124,1.77768,16.2878,172.541,-2.96115,15.0847,192.527,-6.12827,13.9366,149.656,-24.9803,0.305125,176.182,-29.9095,-5.03252,193.901,-36.0398,-10.7398,133.587,-41.2847,-8.94256,154.575,-51.6371,-11.4601,172.946,-58.5711,-9.3615,110.459,-54.0597,-17.9581,126.841,-63.2722,-19.6568,137.071,-76.6487,-24.7326,85.0572,62.9006,0.0342869,114.609,64.5442,3.69341,139.605,71.0474,-6.18192,39.2125,-0.7585,4.08791,50.6769,44.1952,-4.28759,35.9253,-22.5472,-12.4637,0.291847,1.75925,0.238513
4,1,0.00340264,0.0058687,0.0186022,0.0449134,0.00607575,0.00070489,0.00110869,0.28192,105.79,6.12181,16.3611,97.9054,-13.535,9.41694,88.8594,-26.1181,-3.16685,83.0205,-38.7978,-13.7658,150.105,1.76725,16.3525,172.526,-2.96725,15.1596,192.509,-6.14132,14.0241,149.647,-24.9803,0.377593,176.172,-29.9294,-4.94925,193.897,-36.0569,-10.6441,133.581,-41.295,-8.87743,154.569,-51.6451,-11.3813,172.945,-58.5903,-9.26985,110.458,-54.0673,-17.9096,126.84,-63.2824,-19.5899,137.072,-76.6638,-24.6538,85.063,62.8885,0.0413071,114.617,64.5279,3.70762,139.616,71.0167,-6.1719,39.2062,-0.757862,4.08632,50.6764,44.1962,-4.28731,35.9237,-22.5483,-12.4635,0.293903,1.75932,0.238039
4,1,0.00347311,0.00591763,0.0194466,0.0438286,0.00646889,0.000753547,0.00111438,0.292151,105.777,6.11564,16.4037,97.8945,-13.5473,9.4572,88.8505,-26.1186,-3.12996,83.0159,-38.811,-13.7333,150.086,1.75687,16.4188,172.511,-2.97349,15.2364,192.49,-6.15453,14.1138,149.638,-24.9803,0.451758,176.162,-29.9494,-4.86421,193.892,-36.0742,-10.5462,133.575,-41.3053,-8.81069,154.563,-51.6533,-11.3006,172.943,-58.6094,-9.17624,110.457,-54.075,-17.8597,126.84,-63.2927,-19.5216,137.072,-76.679,-24.5736,85.0689,62.8761,0.048651,114.626,64.5112,3.72224,139.628,70.9852,-6.16113,39.1996,-0.75728,4.08471,50.6759,44.1972,-4.28702,35.9221,-22.5494,-12.4633,0.296037,1.75942,0.23755
4,1,0.00351346,0.00593474,0.0201727,0.0426253,0.00679757,0.000807544,0.0011125,0.300362,105.763,6.10967,16.447,97.8831,-13.5593,9.49839,88.8412,-26.1189,-3.09216,83.0111,-38.8241,-13.7002,150.066,1.74659,16.4866,172.495,-2.97985,15.3147,192.471,-6.16789,14.2057,149.628,-24.9804,0.527552,176.152,-29.9695,-4.77748,193.887,-36.0916,-10.446,133.569,-41.3157,-8.74238,154.557,-51.6615,-11.2182,172.94,-58.6283,-9.08074,110.457,-54.0829,-17.8087,126.839,-63.3031,-19.452,137.073,-76.6943,-24.4918,85.0749,62.8634,0.0563155,114.635,64.4941,3.73726,139.638,70.9529,-6.1496,39.1925,-0.756761,4.08309,50.6754,44.1982,-4.28672,35.9204,-22.5505,-12.4631,0.298249,1.75955,0.237048
4,1,0.00352518,0.00592144,0.0207838,0.0413129,0.00706349,0.000867244,0.00110357,0.306611,105.749,6.10388,16.491,97.8713,-13.5711,9.54048,88.8316,-26.1193,-3.05348,83.0059,-38.8371,-13.6665,150.046,1.7364,16.5559,172.478,-2.98631,15.3947,192.451,-6.18138,14.2996,149.618,-24.9806,0.604901,176.141,-29.9896,-4.68916,193.882,-36.1092,-10.3437,133.562,-41.3262,-8.67258,154.551,-51.6698,-11.1341,172.937,-58.6472,-8.98345,110.456,-54.0909,-17.7564,126.838,-63.3136,-19.3811,137.073,-76.7098,-24.4087,85.081,62.8506,0.064296,114.644,64.4766,3.75267,139.649,70.9198,-6.13727,39.1852,-0.756311,4.08145,50.6748,44.1992,-4.28641,35.9187,-22.5517,-12.4629,0.300539,1.7597,0.236531
4,1,0.00351008,0.00587942,0.0212845,0.0399024,0.00726892,0.000932964,0.00108818,0.310979,105.734,6.09831,16.5357,97.8589,-13.5825,9.58343,88.8216,-26.1195,-3.01397,83.0004,-38.8501,-13.6323,150.025,1.72634,16.6265,172.461,-2.99287,15.4761,192.43,-6.19498,14.3954,149.608,-24.9809,0.683725,176.131,-30.0097,-4.59933,193.876,-36.127,-10.2393,133.555,-41.3367,-8.60136,154.544,-51.6781,-11.0485,172.934,-58.6659,-8.88448,110.455,-54.099,-17.703,126.837,-63.3242,-19.3089,137.073,-76.7254,-24.3243,85.0872,62.8375,0.0725867,114.653,64.4587,3.76846,139.659,70.8859,-6.12414,39.1774,-0.755933,4.0798,50.6742,44.2001,-4.2861,35.9169,-22.5528,-12.4627,0.302908,1.75987,0.235999
4,1,0.0034702,0.00581062,0.0216797,0.0384065,0.00741666,0.00100496,0.00106699,0.313561,105.718,6.09295,16.581,97.8461,-13.5936,9.62717,88.8113,-26.1197,-2.97366,82.9947,-38.8629,-13.5976,150.004,1.71643,16.6985,172.443,-2.99952,15.5589,192.41,-6.20866,14.4931,149.598,-24.9811,0.763937,176.12,-30.0298,-4.50809,193.87,-36.1449,-10.1329,133.548,-41.3473,-8.5288,154.538,-51.6865,-10.9613,172.931,-58.6844,-8.78393,110.454,-54.1072,-17.6485,126.835,-63.3349,-19.2357,137.073,-76.741,-24.2387,85.0935,62.8242,0.0811805,114.663,64.4405,3.78461,139.668,70.8512,-6.11017,39.1693,-0.755635,4.07815,50.6735,44.2011,-4.28578,35.9151,-22.5539,-12.4625,0.305356,1.76007,0.235453
4,1,0.00340774,0.00571716,0.0219753,0.036839,0.00750997,0.00108343,0.00104068,0.31447,105.702,6.08782,16.6268,97.8329,-13.6044,9.67167,88.8007,-26.1199,-2.93259,82.9887,-38.8756,-13.5624,149.982,1.70667,16.7717,172.426,-3.00624,15.643,192.388,-6.22241,14.5924,149.587,-24.9815,0.845445,176.108,-30.0499,-4.41555,193.863,-36.1628,-10.0248,133.541,-41.3578,-8.45497,154.531,-51.6948,-10.8728,172.928,-58.7027,-8.68193,110.453,-54.1155,-17.5929,126.834,-63.3456,-19.1613,137.073,-76.7567,-24.1521,85.0998,62.8107,0.0900686,114.672,64.4218,3.80112,139.677,70.8159,-6.09536,39.1609,-0.755421,4.07648,50.6728,44.202,-4.28545,35.9133,-22.5551,-12.4622,0.307883,1.76029,0.234892
4,1,0.00332508,0.00560128,0.0221772,0.035215,0.00755246,0.00116849,0.00100997,0.313829,105.686,6.08292,16.6732,97.8191,-13.6149,9.71685,88.7898,-26.1199,-2.89083,82.9825,-38.8881,-13.5269,149.96,1.69709,16.846,172.407,-3.01303,15.7283,192.367,-6.2362,14.6934,149.576,-24.9819,0.928149,176.097,-30.0699,-4.32183,193.856,-36.1809,-9.91495,133.534,-41.3684,-8.37997,154.524,-51.7032,-10.783,172.924,-58.7209,-8.57859,110.451,-54.1239,-17.5365,126.832,-63.3563,-19.0861,137.073,-76.7724,-24.0644,85.1063,62.797,0.0992409,114.681,64.4028,3.81796,139.686,70.78,-6.07969,39.1521,-0.755296,4.07481,50.6721,44.2029,-4.28511,35.9114,-22.5563,-12.462,0.310489,1.76053,0.234316
4,1,0.00322468,0.00546536,0.022292,0.0335501,0.00754804,0.00126017,0.000975599,0.311773,105.668,6.07826,16.7199,97.805,-13.625,9.76266,88.7786,-26.1199,-2.84841,82.976,-38.9005,-13.491,149.937,1.68772,16.9213,172.388,-3.01987,15.8146,192.345,-6.25002,14.7958,149.564,-24.9823,1.01195,176.085,-30.0897,-4.22703,193.849,-36.199,-9.80358,133.526,-41.3789,-8.3039,154.517,-51.7116,-10.6921,172.919,-58.7387,-8.47405,110.45,-54.1323,-17.4791,126.83,-63.3671,-19.01,137.073,-76.7882,-23.9759,85.1128,62.7832,0.108686,114.69,64.3834,3.83512,139.694,70.7434,-6.06314,39.143,-0.755265,4.07313,50.6713,44.2039,-4.28477,35.9095,-22.5574,-12.4618,0.313173,1.76079,0.233725
4,1,0.00310907,0.00531183,0.0223262,0.0318609,0.00750083,0.00135839,0.000938289,0.308444,105.651,6.07384,16.767,97.7904,-13.6347,9.80902,88.7671,-26.1199,-2.80539,82.9693,-38.9127,-13.4548,149.913,1.67855,16.9976,172.369,-3.02675,15.9019,192.322,-6.26383,14.8996,149.552,-24.9827,1.09672,176.072,-30.1094,-4.13128,193.842,-36.2171,-9.69081,133.518,-41.3894,-8.22685,154.509,-51.7199,-10.6001,172.915,-58.7563,-8.36844,110.449,-54.1408,-17.4209,126.828,-63.3778,-18.9331,137.072,-76.8039,-23.8866,85.1193,62.7692,0.11839,114.699,64.3637,3.85257,139.701,70.7064,-6.04571,39.1336,-0.755333,4.07144,50.6705,44.2047,-4.28442,35.9076,-22.5586,-12.4615,0.315935,1.76107,0.233118
4,1,0.00298077,0.00514317,0.0222865,0.0301642,0.00741509,0.001463,0.000898763,0.303989,105.632,6.06968,16.8144,97.7754,-13.644,9.85588,88.7553,-26.1198,-2.76182,82.9624,-38.9247,-13.4184,149.89,1.66963,17.0746,172.35,-3.03366,15.99,192.3,-6.27762,15.0045,149.54,-24.9831,1.18236,176.06,-30.129,-4.03473,193.834,-36.2352,-9.5768,133.51,-41.3999,-8.14893,154.502,-51.7282,-10.5072,172.91,-58.7736,-8.26192,110.448,-54.1494,-17.3619,126.825,-63.3886,-18.8556,137.072,-76.8196,-23.7967,85.126,62.7551,0.128338,114.708,64.3437,3.8703,139.708,70.6688,-6.02739,39.124,-0.755506,4.06974,50.6697,44.2056,-4.28406,35.9056,-22.5598,-12.4612,0.318774,1.76136,0.232497
4,1,0.00284229,0.00496186,0.0221797,0.0284767,0.00729518,0.00157371,0.000857719,0.298558,105.613,6.06577,16.862,97.7601,-13.6529,9.90315,88.7432,-26.1196,-2.71778,82.9553,-38.9364,-13.3817,149.866,1.66095,17.1524,172.33,-3.04058,16.0788,192.277,-6.29136,15.1104,149.528,-24.9836,1.26874,176.048,-30.1483,-3.93749,193.826,-36.2532,-9.46171,133.501,-41.4103,-8.07026,154.494,-51.7365,-10.4135,172.905,-58.7906,-8.15463,110.446,-54.158,-17.3024,126.823,-63.3993,-18.7775,137.071,-76.8352,-23.7062,85.1326,62.7409,0.138515,114.717,64.3234,3.88827,139.714,70.6308,-6.00818,39.114,-0.755786,4.06804,50.6688,44.2065,-4.2837,35.9036,-22.5609,-12.461,0.321688,1.76167,0.23186
4,1,0.0026961,0.00477032,0.0220123,0.026815,0.00714546,0.00169015,0.000815822,0.292302,105.594,6.06213,16.9097,97.7443,-13.6614,9.95075,88.731,-26.1193,-2.67332,82.9481,-38.948,-13.3449,149.841,1.65255,17.2307,172.31,-3.04749,16.1681,192.253,-6.30502,15.2171,149.516,-24.9841,1.35573,176.035,-30.1675,-3.83973,193.817,-36.2712,-9.34573,133.493,-41.4207,-7.99095,154.487,-51.7446,-10.3192,172.899,-58.8073,-8.04673,110.445,-54.1666,-17.2422,126.82,-63.4099,-18.699,137.07,-76.8507,-23.6155,85.1393,62.7265,0.148901,114.726,64.3028,3.90647,139.72,70.5925,-5.98807,39.1038,-0.756179,4.06633,50.6678,44.2074,-4.28333,35.9015,-22.5621,-12.4607,0.324675,1.76199,0.231208
4,1,0.00254454,0.00457096,0.0217909,0.0251953,0.00697028,0.00181181,0.000773696,0.285368,105.574,6.05874,16.9575,97.7283,-13.6695,9.99861,88.7184,-26.119,-2.62851,82.9407,-38.9593,-13.3081,149.817,1.64443,17.3094,172.29,-3.05439,16.2579,192.23,-6.31859,15.3245,149.503,-24.9846,1.4432,176.022,-30.1864,-3.74159,193.808,-36.2891,-9.22902,133.484,-41.4309,-7.91113,154.479,-51.7528,-10.2245,172.894,-58.8236,-7.9384,110.443,-54.1752,-17.1816,126.817,-63.4205,-18.6202,137.07,-76.8662,-23.5244,85.146,62.7121,0.159477,114.735,64.282,3.92486,139.725,70.5539,-5.96707,39.0934,-0.756687,4.06461,50.6669,44.2082,-4.28296,35.8994,-22.5633,-12.4604,0.327735,1.76233,0.230541
4,1,0.00238988,0.00436608,0.0215217,0.0236331,0.00677389,0.00193811,0.000731916,0.277902,105.554,6.05563,17.0052,97.7119,-13.6772,10.0466,88.7057,-26.1187,-2.58341,82.9332,-38.9704,-13.2712,149.792,1.63661,17.3885,172.269,-3.06126,16.3478,192.206,-6.33204,15.4323,149.49,-24.9851,1.531,176.009,-30.205,-3.64322,193.799,-36.3069,-9.11179,133.475,-41.4411,-7.83093,154.471,-51.7608,-10.1294,172.888,-58.8395,-7.82981,110.442,-54.1838,-17.1206,126.814,-63.4309,-18.5412,137.069,-76.8815,-23.4333,85.1528,62.6975,0.170221,114.743,64.2609,3.94342,139.729,70.515,-5.94517,39.0827,-0.757315,4.06289,50.6659,44.2091,-4.28258,35.8972,-22.5645,-12.4601,0.330864,1.76267,0.229859
4,1,0.00223423,0.00415791,0.0212107,0.0221428,0.00656044,0.00206833,0.000691005,0.270044,105.533,6.05278,17.0529,97.6953,-13.6844,10.0947,88.6928,-26.1182,-2.53811,82.9256,-38.9812,-13.2343,149.766,1.62911,17.4677,172.249,-3.06808,16.4379,192.182,-6.34534,15.5405,149.477,-24.9855,1.61899,175.996,-30.2233,-3.54479,193.79,-36.3245,-8.99422,133.466,-41.4511,-7.75048,154.463,-51.7688,-10.0341,172.882,-58.855,-7.72113,110.44,-54.1923,-17.0593,126.811,-63.4413,-18.4622,137.068,-76.8966,-23.3422,85.1596,62.683,0.18111,114.752,64.2397,3.96211,139.733,70.476,-5.9224,39.0718,-0.758065,4.06117,50.6649,44.2099,-4.28219,35.895,-22.5657,-12.4598,0.33406,1.76302,0.229162
4,1,0.00207956,0.00394856,0.0208637,0.0207379,0.0063339,0.00220165,0.000651424,0.261927,105.513,6.0502,17.1003,97.6784,-13.6912,10.1428,88.6797,-26.1177,-2.49267,82.9179,-38.9917,-13.1976,149.741,1.62195,17.5469,172.228,-3.07484,16.5278,192.158,-6.35847,15.6487,149.464,-24.9859,1.70702,175.982,-30.2413,-3.44647,193.78,-36.3419,-8.87653,133.457,-41.461,-7.66992,154.455,-51.7766,-9.93881,172.875,-58.8701,-7.61255,110.439,-54.2009,-16.9979,126.807,-63.4515,-18.3833,137.067,-76.9115,-23.2514,85.1664,62.6683,0.192119,114.76,64.2182,3.98089,139.736,70.4369,-5.89876,39.0608,-0.75894,4.05944,50.6639,44.2107,-4.2818,35.8928,-22.5669,-12.4594,0.33732,1.76337,0.22845
4,1,0.00192767,0.00374,0.0204862,0.0194305,0.00609807,0.0023372,0.000613575,0.253674,105.491,6.04789,17.1474,97.6612,-13.6976,10.1908,88.6665,-26.1171,-2.44717,82.9101,-39.0019,-13.161,149.715,1.61513,17.626,172.207,-3.08152,16.6175,192.134,-6.37141,15.7568,149.45,-24.9864,1.79494,175.969,-30.2589,-3.34842,193.77,-36.3591,-8.75892,133.448,-41.4707,-7.5894,154.446,-51.7843,-9.84371,172.869,-58.8848,-7.50426,110.437,-54.2093,-16.9364,126.804,-63.4616,-18.3045,137.066,-76.9263,-23.1609,85.1732,62.6537,0.203222,114.768,64.1965,3.99973,139.739,70.3979,-5.87426,39.0496,-0.759943,4.05771,50.6628,44.2115,-4.28141,35.8905,-22.568,-12.4591,0.340642,1.76373,0.227724
4,1,0.00178018,0.00353406,0.0200833,0.0182313,0.00585653,0.00247399,0.000577796,0.245402,105.47,6.04585,17.1941,97.6439,-13.7035,10.2386,88.6531,-26.1165,-2.4017,82.9024,-39.0119,-13.1247,149.69,1.60867,17.7048,172.186,-3.08811,16.7068,192.11,-6.38413,15.8645,149.437,-24.9867,1.88257,175.956,-30.2762,-3.25084,193.76,-36.376,-8.64161,133.438,-41.4803,-7.50906,154.438,-51.7919,-9.74895,172.862,-58.899,-7.39646,110.436,-54.2177,-16.875,126.8,-63.4715,-18.2262,137.065,-76.9408,-23.0709,85.18,62.6391,0.21439,114.776,64.1747,4.01859,139.741,70.3589,-5.84893,39.0382,-0.761074,4.05597,50.6617,44.2124,-4.28101,35.8882,-22.5692,-12.4588,0.344021,1.76408,0.226985
4,1,0.00163854,0.00333245,0.0196601,0.0171494,0.00561264,0.00261099,0.000544361,0.237216,105.448,6.04408,17.2403,97.6265,-13.709,10.286,88.6396,-26.1158,-2.35632,82.8946,-39.0215,-13.0886,149.664,1.60258,17.7832,172.165,-3.0946,16.7955,192.086,-6.3966,15.9717,149.423,-24.987,1.96977,175.943,-30.293,-3.15389,193.75,-36.3927,-8.52482,133.429,-41.4897,-7.42906,154.43,-51.7993,-9.65471,172.855,-58.9128,-7.28935,110.434,-54.2261,-16.8137,126.796,-63.4813,-18.1483,137.064,-76.955,-22.9816,85.1867,62.6244,0.225594,114.784,64.1528,4.03743,139.742,70.32,-5.82278,39.0268,-0.762337,4.05423,50.6607,44.2132,-4.28061,35.8859,-22.5704,-12.4584,0.347453,1.76443,0.226231
4,1,0.00150401,0.00313667,0.0192211,0.0161925,0.00536948,0.0027471,0.000513481,0.22921,105.427,6.04257,17.286,97.6089,-13.7141,10.333,88.6261,-26.1151,-2.31114,82.8868,-39.0308,-13.053,149.638,1.59688,17.8609,172.144,-3.10096,16.8833,192.062,-6.40881,16.0782,149.41,-24.9873,2.05636,175.929,-30.3094,-3.05777,193.739,-36.409,-8.40879,133.419,-41.4989,-7.34955,154.422,-51.8065,-9.56118,172.848,-58.926,-7.18313,110.432,-54.2343,-16.7527,126.792,-63.4908,-18.0712,137.063,-76.969,-22.8932,85.1935,62.6098,0.236803,114.791,64.1309,4.05621,139.743,70.2815,-5.79585,39.0153,-0.76373,4.05249,50.6596,44.214,-4.2802,35.8835,-22.5716,-12.4581,0.350935,1.76477,0.225465
4,1,0.00137769,0.0029481,0.0187706,0.0153665,0.0051299,0.00288121,0.000485307,0.221467,105.405,6.04133,17.331,97.5913,-13.7187,10.3795,88.6125,-26.1143,-2.26622,82.8791,-39.0397,-13.0178,149.612,1.59157,17.9379,172.124,-3.10718,16.9702,192.038,-6.42074,16.1836,149.396,-24.9875,2.14216,175.916,-30.3253,-2.96266,193.729,-36.425,-8.29375,133.409,-41.5079,-7.27069,154.413,-51.8136,-9.46855,172.841,-58.9388,-7.07801,110.431,-54.2424,-16.6922,126.788,-63.5001,-17.9948,137.062,-76.9826,-22.8058,85.2003,62.5953,0.247983,114.799,64.1088,4.07487,139.743,70.2432,-5.76816,39.0037,-0.765255,4.05074,50.6585,44.2148,-4.2798,35.8811,-22.5727,-12.4577,0.354462,1.76509,0.224686
4,1,0.00126048,0.00276793,0.0183126,0.0146755,0.00489645,0.00301218,0.000459931,0.214058,105.383,6.04035,17.3752,97.5737,-13.7229,10.4254,88.5988,-26.1134,-2.22166,82.8715,-39.0483,-12.9831,149.587,1.58666,18.0139,172.103,-3.11324,17.0559,192.014,-6.43235,16.2878,149.383,-24.9877,2.22702,175.903,-30.3408,-2.86877,193.718,-36.4407,-8.17994,133.399,-41.5166,-7.19264,154.405,-51.8205,-9.37699,172.834,-58.9511,-6.97422,110.429,-54.2504,-16.6321,126.784,-63.5091,-17.9194,137.061,-76.9959,-22.7195,85.207,62.5808,0.2591,114.806,64.0867,4.09338,139.743,70.2054,-5.73975,38.9921,-0.766912,4.04899,50.6573,44.2157,-4.27939,35.8786,-22.5738,-12.4573,0.358029,1.76541,0.223895
4,1,0.00115312,0.00259718,0.017851,0.0141222,0.00467142,0.00313889,0.000437392,0.207045,105.361,6.03963,17.4185,97.556,-13.7266,10.4705,88.5852,-26.1125,-2.17755,82.864,-39.0566,-12.9489,149.561,1.58217,18.0888,172.083,-3.11914,17.1403,191.99,-6.44362,16.3905,149.369,-24.9878,2.31074,175.89,-30.3558,-2.77628,193.707,-36.4559,-8.0676,133.39,-41.5252,-7.11558,154.397,-51.8271,-9.28672,172.826,-58.9628,-6.87195,110.427,-54.2582,-16.5728,126.78,-63.5179,-17.8451,137.06,-77.0089,-22.6346,85.2137,62.5664,0.270119,114.812,64.0647,4.11168,139.742,70.1681,-5.71065,38.9805,-0.768699,4.04724,50.6562,44.2165,-4.27898,35.8761,-22.575,-12.4569,0.361631,1.7657,0.223093
4,1,0.0010562,0.00243671,0.0173893,0.0137075,0.00445681,0.00326023,0.000417678,0.200475,105.339,6.03915,17.4609,97.5385,-13.7299,10.5148,88.5716,-26.1115,-2.13397,82.8565,-39.0645,-12.9155,149.536,1.5781,18.1625,172.062,-3.12485,17.2231,191.967,-6.45455,16.4915,149.355,-24.9877,2.39316,175.877,-30.3702,-2.68539,193.696,-36.4707,-7.95697,133.38,-41.5334,-7.03966,154.389,-51.8336,-9.19791,172.819,-58.9741,-6.77143,110.426,-54.2659,-16.5142,126.775,-63.5265,-17.7721,137.059,-77.0215,-22.5513,85.2204,62.5521,0.281003,114.818,64.0427,4.12973,139.74,70.1315,-5.68092,38.969,-0.770616,4.04549,50.6551,44.2173,-4.27857,35.8736,-22.5761,-12.4565,0.365262,1.76598,0.22228
4,1,0.000970132,0.00228721,0.0169309,0.0134306,0.00425432,0.00337515,0.000400735,0.194385,105.318,6.03893,17.5021,97.521,-13.7327,10.5581,88.5581,-26.1104,-2.09101,82.8493,-39.072,-12.8828,149.511,1.57447,18.2346,172.043,-3.13036,17.3041,191.944,-6.46509,16.5906,149.342,-24.9876,2.47409,175.864,-30.3841,-2.5963,193.685,-36.4851,-7.84831,133.37,-41.5414,-6.96505,154.381,-51.8398,-9.11076,172.812,-58.9847,-6.67288,110.424,-54.2734,-16.4565,126.771,-63.5347,-17.7005,137.058,-77.0336,-22.4696,85.227,62.538,0.291714,114.824,64.0207,4.14746,139.738,70.0955,-5.65058,38.9575,-0.772661,4.04373,50.654,44.2182,-4.27816,35.8711,-22.5772,-12.4561,0.368916,1.76623,0.221457
4,1,0.000895198,0.0021492,0.0164788,0.0132895,0.00406539,0.00348265,0.000386465,0.188802,105.296,6.03894,17.5423,97.5037,-13.7352,10.6003,88.5446,-26.1093,-2.04877,82.8422,-39.0792,-12.8508,149.486,1.57126,18.3052,172.023,-3.13566,17.3832,191.921,-6.47525,16.6875,149.329,-24.9875,2.55336,175.852,-30.3974,-2.50921,193.674,-36.4989,-7.74185,133.36,-41.5491,-6.89192,154.373,-51.8458,-9.02548,172.805,-58.9949,-6.57651,110.423,-54.2807,-16.3999,126.767,-63.5426,-17.6304,137.057,-77.0454,-22.3898,85.2336,62.5239,0.302214,114.83,63.9988,4.16484,139.736,70.0603,-5.6197,38.9461,-0.77483,4.04198,50.6529,44.219,-4.27775,35.8685,-22.5783,-12.4557,0.372587,1.76645,0.220625
4,1,0.00083154,0.00202307,0.0160362,0.0132803,0.00389117,0.00358184,0.000374742,0.183742,105.275,6.03919,17.5811,97.4865,-13.7372,10.6413,88.5313,-26.1082,-2.00732,82.8353,-39.086,-12.8198,149.461,1.5685,18.3739,172.004,-3.14073,17.4601,191.899,-6.48498,16.782,149.315,-24.9872,2.63078,175.84,-30.4101,-2.42431,193.663,-36.5123,-7.63786,133.35,-41.5565,-6.82044,154.365,-51.8516,-8.94225,172.797,-59.0044,-6.48255,110.421,-54.2878,-16.3445,126.762,-63.5502,-17.5622,137.056,-77.0567,-22.3121,85.2402,62.5101,0.312462,114.835,63.9771,4.18181,139.733,70.0261,-5.58832,38.9349,-0.777122,4.04022,50.6519,44.2199,-4.27734,35.8659,-22.5793,-12.4552,0.376268,1.76664,0.219785
4,1,0.00077918,0.00190906,0.0156059,0.0133982,0.00373255,0.00367189,0.000365408,0.179213,105.254,6.03967,17.6186,97.4697,-13.7388,10.6809,88.5181,-26.107,-1.96677,82.8286,-39.0923,-12.7897,149.437,1.56618,18.4406,171.985,-3.14556,17.5347,191.877,-6.49429,16.8738,149.302,-24.9868,2.70618,175.828,-30.4223,-2.34182,193.652,-36.5251,-7.53657,133.341,-41.5636,-6.75077,154.357,-51.857,-8.86127,172.79,-59.0134,-6.39121,110.42,-54.2947,-16.2903,126.758,-63.5574,-17.4958,137.055,-77.0675,-22.2366,85.2467,62.4964,0.322417,114.84,63.9556,4.1983,139.73,69.9928,-5.5565,38.9238,-0.779533,4.03846,50.6508,44.2208,-4.27694,35.8632,-22.5804,-12.4548,0.379954,1.76679,0.218937
4,1,0.00073802,0.00180726,0.0151908,0.013637,0.00359013,0.00375212,0.000358283,0.175212,105.233,6.04036,17.6546,97.4531,-13.74,10.7192,88.5051,-26.1058,-1.92719,82.8222,-39.0983,-12.7606,149.414,1.56431,18.5052,171.967,-3.15014,17.6068,191.856,-6.50315,16.9627,149.29,-24.9863,2.77937,175.816,-30.4338,-2.26191,193.641,-36.5374,-7.43823,133.331,-41.5704,-6.68309,154.349,-51.8623,-8.78274,172.783,-59.0219,-6.3027,110.418,-54.3013,-16.2376,126.753,-63.5643,-17.4315,137.054,-77.0779,-22.1634,85.2531,62.483,0.33204,114.845,63.9342,4.21427,139.726,69.9606,-5.5243,38.9129,-0.782058,4.0367,50.6498,44.2217,-4.27654,35.8606,-22.5814,-12.4543,0.383636,1.7669,0.218083
4,1,0.000707861,0.00171766,0.0147936,0.0139892,0.00346428,0.00382197,0.000353168,0.17173,105.213,6.04127,17.689,97.4369,-13.7408,10.7559,88.4923,-26.1045,-1.88867,82.816,-39.1039,-12.7325,149.39,1.56288,18.5674,171.949,-3.15444,17.6761,191.835,-6.51154,17.0485,149.277,-24.9856,2.85019,175.805,-30.4447,-2.1848,193.63,-36.549,-7.34309,133.321,-41.5768,-6.61756,154.342,-51.8672,-8.70684,172.776,-59.0297,-6.21725,110.417,-54.3077,-16.1865,126.749,-63.5708,-17.3694,137.053,-77.0877,-22.0929,85.2595,62.4697,0.341287,114.849,63.9131,4.22966,139.722,69.9296,-5.49179,38.9022,-0.784693,4.03495,50.6488,44.2226,-4.27614,35.8579,-22.5824,-12.4539,0.387307,1.76697,0.217224
4,1,0.000688407,0.00164015,0.0144172,0.0144469,0.00335513,0.00388099,0.000349853,0.168751,105.193,6.04238,17.7218,97.421,-13.7412,10.791,88.4798,-26.1031,-1.8513,82.8102,-39.1091,-12.7057,149.368,1.56191,18.6271,171.932,-3.15847,17.7425,191.815,-6.51946,17.131,149.265,-24.9849,2.91846,175.794,-30.4549,-2.11066,193.619,-36.5601,-7.25138,133.312,-41.5829,-6.55435,154.335,-51.8718,-8.63376,172.769,-59.037,-6.13505,110.416,-54.3138,-16.137,126.744,-63.5769,-17.3097,137.053,-77.097,-22.025,85.2659,62.4567,0.350118,114.852,63.8923,4.24442,139.718,69.8999,-5.45902,38.8918,-0.787433,4.03319,50.6478,44.2236,-4.27575,35.8552,-22.5833,-12.4534,0.390961,1.76698,0.216361
4,1,0.000679279,0.00157451,0.0140642,0.0150007,0.00326258,0.00392892,0.000348118,0.166254,105.174,6.04369,17.7529,97.4056,-13.7413,10.8243,88.4675,-26.1018,-1.81516,82.8046,-39.1139,-12.68,149.346,1.56138,18.6842,171.916,-3.16221,17.8058,191.796,-6.52688,17.2098,149.253,-24.984,2.98402,175.784,-30.4645,-2.03969,193.608,-36.5705,-7.16335,133.303,-41.5887,-6.4936,154.328,-51.8761,-8.56368,172.763,-59.0437,-6.05632,110.415,-54.3197,-16.0893,126.74,-63.5826,-17.2524,137.052,-77.1058,-21.96,85.2722,62.4439,0.35849,114.856,63.8718,4.25848,139.714,69.8716,-5.42607,38.8816,-0.790272,4.03144,50.6469,44.2246,-4.27536,35.8525,-22.5843,-12.4529,0.394588,1.76695,0.215495
4,1,0.000680019,0.00152046,0.0137375,0.0156412,0.00318631,0.00396561,0.000347738,0.164212,105.155,6.04518,17.7821,97.3907,-13.741,10.8557,88.4555,-26.1004,-1.78034,82.7994,-39.1183,-12.6556,149.325,1.5613,18.7385,171.9,-3.16564,17.8659,191.778,-6.5338,17.2848,149.242,-24.983,3.04669,175.774,-30.4734,-1.97206,193.598,-36.5803,-7.07921,133.294,-41.594,-6.43548,154.321,-51.8802,-8.49679,172.756,-59.0497,-5.98125,110.414,-54.3253,-16.0436,126.735,-63.5878,-17.1978,137.052,-77.114,-21.898,85.2784,62.4314,0.366361,114.858,63.8516,4.27179,139.709,69.8447,-5.39301,38.8718,-0.793203,4.02969,50.6461,44.2256,-4.27498,35.8498,-22.5852,-12.4524,0.398182,1.76686,0.214627
4,1,0.000690102,0.00147763,0.0134399,0.0163581,0.00312585,0.0039911,0.000348488,0.162594,105.137,6.04685,17.8095,97.3763,-13.7403,10.8852,88.4439,-26.0989,-1.74691,82.7946,-39.1223,-12.6326,149.304,1.56166,18.7897,171.885,-3.16877,17.9224,191.76,-6.54021,17.3558,149.23,-24.9819,3.10632,175.765,-30.4816,-1.90796,193.587,-36.5894,-6.9992,133.285,-41.5991,-6.38014,154.314,-51.8839,-8.43325,172.75,-59.0553,-5.91003,110.413,-54.3305,-15.9999,126.731,-63.5927,-17.146,137.052,-77.1216,-21.8392,85.2846,62.4192,0.373688,114.861,63.8319,4.2843,139.704,69.8193,-5.35991,38.8624,-0.79622,4.02794,50.6453,44.2266,-4.27461,35.847,-22.5861,-12.4519,0.401733,1.76671,0.213758
4,1,0.000708943,0.00144563,0.0131741,0.0171408,0.00308052,0.00400553,0.000350145,0.161368,105.12,6.04869,17.8348,97.3625,-13.7393,10.9126,88.4326,-26.0974,-1.71494,82.7901,-39.1259,-12.6109,149.285,1.56247,18.8379,171.871,-3.17157,17.9754,191.743,-6.54609,17.4226,149.22,-24.9806,3.16275,175.756,-30.4892,-1.84754,193.577,-36.5978,-6.92352,133.276,-41.6037,-6.32773,154.308,-51.8872,-8.37323,172.744,-59.0602,-5.84286,110.412,-54.3355,-15.9584,126.727,-63.5971,-17.0971,137.051,-77.1286,-21.7838,85.2907,62.4073,0.380432,114.863,63.8125,4.29595,139.7,69.7956,-5.32686,38.8533,-0.799315,4.0262,50.6445,44.2276,-4.27425,35.8443,-22.5869,-12.4514,0.405234,1.76649,0.21289
4,1,0.000735904,0.00142399,0.012943,0.0179786,0.00304952,0.00400924,0.00035249,0.160499,105.104,6.05068,17.8581,97.3494,-13.7379,10.9378,88.4217,-26.0959,-1.68452,82.786,-39.129,-12.5907,149.266,1.56371,18.8827,171.858,-3.17405,18.0246,191.727,-6.55143,17.485,149.21,-24.9793,3.21584,175.747,-30.496,-1.79099,193.568,-36.6055,-6.85239,133.268,-41.6079,-6.27838,154.302,-51.8903,-8.3169,172.739,-59.0645,-5.7799,110.411,-54.3401,-15.9191,126.722,-63.6011,-17.0513,137.051,-77.1351,-21.7317,85.2968,62.3957,0.386551,114.864,63.7936,4.30669,139.695,69.7737,-5.29392,38.8446,-0.802482,4.02446,50.6438,44.2287,-4.27389,35.8415,-22.5877,-12.4509,0.408676,1.76621,0.212024
4,1,0.000770303,0.00141223,0.0127492,0.0188607,0.00303192,0.00400267,0.000355309,0.15995,105.088,6.05282,17.8792,97.3369,-13.7362,10.9608,88.4112,-26.0944,-1.6557,82.7823,-39.1318,-12.572,149.248,1.56538,18.9241,171.846,-3.17619,18.0698,191.712,-6.55624,17.5427,149.2,-24.9777,3.26545,175.74,-30.5021,-1.73843,193.558,-36.6125,-6.786,133.26,-41.6118,-6.23224,154.296,-51.893,-8.26439,172.733,-59.0683,-5.72133,110.411,-54.3444,-15.8823,126.718,-63.6046,-17.0086,137.051,-77.1409,-21.6833,85.3028,62.3844,0.392004,114.865,63.7753,4.31646,139.69,69.7535,-5.26119,38.8363,-0.805711,4.02273,50.6432,44.2298,-4.27355,35.8388,-22.5885,-12.4504,0.412052,1.76585,0.211162
4,1,0.000811419,0.00140985,0.0125956,0.0197762,0.00302667,0.00398638,0.000358401,0.159684,105.073,6.05509,17.8982,97.3251,-13.7342,10.9814,88.4011,-26.0928,-1.62855,82.7791,-39.1341,-12.5548,149.231,1.56747,18.962,171.834,-3.17799,18.111,191.698,-6.5605,17.5957,149.191,-24.9761,3.31145,175.733,-30.5076,-1.69004,193.549,-36.6187,-6.72453,133.252,-41.6152,-6.18942,154.291,-51.8954,-8.21586,172.729,-59.0714,-5.66731,110.41,-54.3483,-15.8478,126.714,-63.6076,-16.9692,137.052,-77.1461,-21.6386,85.3088,62.3734,0.396753,114.866,63.7574,4.32521,139.686,69.7352,-5.22874,38.8286,-0.808994,4.02101,50.6426,44.231,-4.27322,35.836,-22.5892,-12.4499,0.415351,1.76542,0.210304
4,1,0.0008585,0.00141631,0.0124847,0.0207146,0.00303266,0.00396108,0.00036157,0.159666,105.059,6.05749,17.9148,97.3141,-13.732,10.9996,88.3916,-26.0912,-1.60313,82.7762,-39.136,-12.5392,149.215,1.56998,18.9962,171.824,-3.17943,18.148,191.685,-6.56421,17.6437,149.182,-24.9743,3.35371,175.726,-30.5123,-1.64592,193.54,-36.6242,-6.66816,133.244,-41.6182,-6.15005,154.286,-51.8974,-8.17142,172.724,-59.074,-5.61798,110.41,-54.3519,-15.816,126.71,-63.6102,-16.9332,137.052,-77.1507,-21.5976,85.3147,62.3628,0.40076,114.866,63.7401,4.3329,139.682,69.7188,-5.19666,38.8213,-0.812323,4.01931,50.6422,44.2322,-4.2729,35.8333,-22.5899,-12.4494,0.418567,1.76492,0.209452
4,1,0.000910772,0.00143107,0.0124188,0.0216654,0.00304869,0.00392752,0.000364635,0.159859,105.046,6.06001,17.9292,97.3039,-13.7294,11.0153,88.3825,-26.0896,-1.5795,82.7739,-39.1376,-12.5253,149.2,1.57289,19.0267,171.814,-3.18053,18.1807,191.673,-6.56738,17.6866,149.174,-24.9723,3.39212,175.72,-30.5163,-1.60622,193.532,-36.6289,-6.61705,133.237,-41.6208,-6.11424,154.281,-51.899,-8.13122,172.72,-59.0761,-5.57347,110.41,-54.3551,-15.7868,126.707,-63.6123,-16.9007,137.052,-77.1546,-21.5606,85.3206,62.3526,0.403988,114.866,63.7234,4.33947,139.678,69.7045,-5.16504,38.8145,-0.815688,4.01761,50.6418,44.2334,-4.27259,35.8306,-22.5905,-12.4488,0.42169,1.76432,0.208608
4,1,0.000967443,0.00145359,0.0124003,0.0226188,0.00307353,0.00388657,0.000367427,0.160228,105.034,6.06263,17.9412,97.2945,-13.7266,11.0285,88.3739,-26.088,-1.55771,82.7719,-39.1387,-12.5129,149.186,1.5762,19.0532,171.806,-3.18127,18.209,191.662,-6.56999,17.7243,149.166,-24.9703,3.42658,175.715,-30.5196,-1.57103,193.524,-36.6329,-6.57133,133.23,-41.623,-6.08208,154.277,-51.9003,-8.09534,172.716,-59.0775,-5.53391,110.41,-54.3579,-15.7603,126.703,-63.6139,-16.8717,137.053,-77.1579,-21.5275,85.3264,62.3427,0.406402,114.866,63.7074,4.34488,139.674,69.6922,-5.13397,38.8083,-0.819079,4.01592,50.6415,44.2347,-4.2723,35.8278,-22.5911,-12.4483,0.424712,1.76365,0.207773
4,1,0.00102771,0.00148331,0.0124309,0.0235651,0.00310593,0.00383913,0.000369789,0.160739,105.023,6.06534,17.9508,97.286,-13.7235,11.039,88.3659,-26.0863,-1.5378,82.7705,-39.1394,-12.5023,149.173,1.57989,19.0758,171.799,-3.18164,18.2327,191.653,-6.57205,17.7566,149.16,-24.9681,3.457,175.711,-30.5222,-1.54047,193.516,-36.6361,-6.53115,133.223,-41.6248,-6.05368,154.273,-51.9013,-8.0639,172.712,-59.0785,-5.49941,110.41,-54.3604,-15.7366,126.699,-63.615,-16.8464,137.054,-77.1605,-21.4986,85.3322,62.3332,0.407969,114.865,63.692,4.34909,139.672,69.6821,-5.10352,38.8026,-0.822488,4.01425,50.6412,44.236,-4.27202,35.8251,-22.5916,-12.4477,0.427625,1.76289,0.206949
4,1,0.00109077,0.00151967,0.0125121,0.0244955,0.00314464,0.00378613,0.000371581,0.16136,105.013,6.06813,17.9579,97.2784,-13.7202,11.0469,88.3584,-26.0847,-1.51981,82.7695,-39.1397,-12.4934,149.161,1.58395,19.0944,171.792,-3.18166,18.2518,191.645,-6.57356,17.7834,149.153,-24.9657,3.48328,175.707,-30.5241,-1.51461,193.509,-36.6385,-6.49662,133.217,-41.6262,-6.02911,154.269,-51.9019,-8.03698,172.709,-59.0788,-5.47006,110.41,-54.3625,-15.7158,126.696,-63.6156,-16.8248,137.054,-77.1625,-21.4738,85.338,62.3241,0.408655,114.863,63.6773,4.35206,139.669,69.6741,-5.07381,38.7975,-0.825905,4.0126,50.6411,44.2373,-4.27176,35.8225,-22.5921,-12.4472,0.430421,1.76203,0.206137
4,1,0.00115582,0.00156211,0.012645,0.0254014,0.00318839,0.00372852,0.000372676,0.162059,105.004,6.07099,17.9626,97.2717,-13.7167,11.052,88.3516,-26.083,-1.50378,82.769,-39.1397,-12.4862,149.151,1.58838,19.1088,171.787,-3.18132,18.2663,191.637,-6.57452,17.8046,149.148,-24.9633,3.50537,175.704,-30.5253,-1.49353,193.502,-36.6401,-6.46783,133.211,-41.6271,-6.00844,154.266,-51.9021,-8.01465,172.707,-59.0787,-5.44595,110.411,-54.3642,-15.6978,126.693,-63.6158,-16.807,137.055,-77.1639,-21.4532,85.3437,62.3154,0.408433,114.861,63.6633,4.35375,139.667,69.6683,-5.04491,38.793,-0.829318,4.01097,50.6411,44.2387,-4.27151,35.8198,-22.5925,-12.4466,0.43309,1.76108,0.205338
4,1,0.00122208,0.00161008,0.01283,0.0262751,0.00323597,0.00366723,0.000372965,0.162806,104.996,6.07391,17.9648,97.266,-13.7129,11.0543,88.3453,-26.0814,-1.48973,82.769,-39.1392,-12.4808,149.141,1.59315,19.1191,171.783,-3.18061,18.276,191.632,-6.57494,17.8202,149.143,-24.9607,3.52321,175.702,-30.5258,-1.47729,193.496,-36.641,-6.44487,133.206,-41.6276,-5.99173,154.263,-51.902,-7.99697,172.705,-59.078,-5.42714,110.411,-54.3655,-15.6829,126.69,-63.6155,-16.793,137.057,-77.1646,-21.4368,85.3495,62.3071,0.407274,114.859,63.6501,4.35412,139.666,69.6648,-5.01693,38.7891,-0.83272,4.00935,50.6412,44.2401,-4.27128,35.8172,-22.5929,-12.4461,0.435627,1.76004,0.204554
4,1,0.00128877,0.00166302,0.0130673,0.0271094,0.0032862,0.00360317,0.000372354,0.163575,104.989,6.07689,17.9645,97.2612,-13.709,11.0539,88.3396,-26.0797,-1.47768,82.7694,-39.1384,-12.4771,149.133,1.59826,19.1251,171.781,-3.17954,18.2809,191.627,-6.57483,17.8302,149.139,-24.958,3.53675,175.7,-30.5256,-1.46593,193.49,-36.641,-6.4278,133.201,-41.6277,-5.97903,154.26,-51.9015,-7.98398,172.703,-59.0768,-5.41367,110.412,-54.3665,-15.6709,126.687,-63.6146,-16.7829,137.058,-77.1646,-21.4247,85.3551,62.2992,0.405153,114.857,63.6377,4.35314,139.666,69.6636,-4.98995,38.7859,-0.836099,4.00776,50.6414,44.2416,-4.27107,35.8146,-22.5933,-12.4455,0.438022,1.7589,0.203786
4,1,0.00135514,0.00172036,0.013356,0.0278978,0.00333797,0.00353717,0.000370767,0.164338,104.984,6.0799,17.9617,97.2575,-13.7049,11.0507,88.3346,-26.078,-1.46765,82.7703,-39.1372,-12.4752,149.126,1.60369,19.1269,171.779,-3.17811,18.2811,191.624,-6.57419,17.8343,149.135,-24.9552,3.54595,175.7,-30.5247,-1.45947,193.485,-36.6403,-6.41666,133.196,-41.6274,-5.97037,154.258,-51.9006,-7.97571,172.702,-59.0751,-5.40559,110.413,-54.367,-15.662,126.684,-63.6133,-16.7766,137.059,-77.164,-21.4169,85.3608,62.2916,0.402047,114.854,63.626,4.35078,139.667,69.6647,-4.96408,38.7833,-0.839445,4.0062,50.6417,44.2431,-4.27088,35.812,-22.5935,-12.445,0.440269,1.75766,0.203036
4,1,0.00142049,0.00178154,0.0136949,0.0286345,0.00339023,0.00347001,0.000368147,0.16507,104.98,6.08294,17.9565,97.2547,-13.7006,11.0446,88.3302,-26.0764,-1.45966,82.7718,-39.1356,-12.475,149.121,1.60942,19.1244,171.778,-3.17632,18.2765,191.621,-6.57303,17.8327,149.133,-24.9522,3.55081,175.7,-30.5232,-1.45794,193.481,-36.6389,-6.41149,133.192,-41.6266,-5.96579,154.257,-51.8994,-7.97218,172.701,-59.0729,-5.4029,110.415,-54.3671,-15.6561,126.681,-63.6115,-16.7743,137.061,-77.1627,-21.4134,85.3665,62.2845,0.397935,114.851,63.6152,4.34702,139.669,69.668,-4.93941,38.7814,-0.842749,4.00466,50.6421,44.2447,-4.2707,35.8095,-22.5938,-12.4444,0.442361,1.75631,0.202305
4,1,0.00148413,0.001846,0.0140821,0.0293144,0.00344202,0.00340238,0.000364453,0.165749,104.977,6.08599,17.9487,97.253,-13.6962,11.0357,88.3264,-26.0747,-1.45369,82.7737,-39.1337,-12.4766,149.116,1.61543,19.1177,171.779,-3.17419,18.267,191.621,-6.57136,17.8254,149.131,-24.9492,3.55132,175.701,-30.521,-1.46133,193.477,-36.6366,-6.41229,133.188,-41.6255,-5.96528,154.255,-51.8979,-7.9734,172.701,-59.0703,-5.40561,110.416,-54.3669,-15.6532,126.679,-63.6092,-16.7759,137.062,-77.1609,-21.4142,85.3722,62.2778,0.392798,114.848,63.6052,4.34184,139.672,69.6737,-4.91603,38.7801,-0.846001,4.00315,50.6427,44.2463,-4.27055,35.8071,-22.5939,-12.4438,0.44429,1.75487,0.201595
4,1,0.00154542,0.00191316,0.0145148,0.029933,0.00349248,0.00333486,0.000359662,0.166353,104.975,6.08906,17.9384,97.2523,-13.6916,11.0239,88.3233,-26.0731,-1.44974,82.7761,-39.1315,-12.4799,149.113,1.62172,19.1067,171.781,-3.1717,18.2528,191.621,-6.5692,17.8123,149.129,-24.9461,3.54749,175.702,-30.5181,-1.46961,193.473,-36.6336,-6.41904,133.185,-41.6239,-5.96885,154.255,-51.896,-7.97933,172.701,-59.0672,-5.4137,110.418,-54.3662,-15.6534,126.677,-63.6065,-16.7813,137.064,-77.1584,-21.4193,85.3779,62.2715,0.386622,114.844,63.5961,4.33521,139.676,69.6816,-4.89405,38.7795,-0.849191,4.00167,50.6433,44.2479,-4.27042,35.8046,-22.594,-12.4433,0.446051,1.75332,0.200906
4,1,0.00160378,0.00198247,0.0149897,0.0304865,0.00354088,0.00326792,0.000353769,0.166862,104.974,6.09212,17.9257,97.2526,-13.6869,11.0094,88.3209,-26.0714,-1.44781,82.7789,-39.1289,-12.485,149.111,1.62826,19.0914,171.784,-3.16888,18.2339,191.623,-6.56655,17.7935,149.129,-24.9428,3.53933,175.705,-30.5147,-1.48276,193.47,-36.6299,-6.43171,133.182,-41.6219,-5.97649,154.254,-51.8937,-7.98996,172.702,-59.0636,-5.42713,110.42,-54.3652,-15.6566,126.675,-63.6033,-16.7906,137.066,-77.1552,-21.4286,85.3836,62.2656,0.379394,114.84,63.5878,4.32711,139.681,69.6918,-4.87358,38.7796,-0.85231,4.00023,50.6441,44.2496,-4.27031,35.8023,-22.5941,-12.4427,0.447638,1.75166,0.20024
4,1,0.00165867,0.00205336,0.0155027,0.0309717,0.00358657,0.00320194,0.000346788,0.167258,104.975,6.09517,17.9106,97.2539,-13.6821,10.9921,88.3191,-26.0698,-1.44788,82.7822,-39.1259,-12.4917,149.111,1.63504,19.072,171.788,-3.16572,18.2102,191.626,-6.56343,17.769,149.129,-24.9395,3.52689,175.708,-30.5106,-1.50073,193.467,-36.6254,-6.45026,133.18,-41.6195,-5.98816,154.254,-51.8911,-8.00524,172.703,-59.0597,-5.44586,110.422,-54.3637,-15.6628,126.673,-63.5996,-16.8038,137.068,-77.1515,-21.4421,85.3893,62.26,0.371102,114.836,63.5804,4.31754,139.688,69.7042,-4.8547,38.7804,-0.855348,3.99882,50.645,44.2514,-4.27022,35.7999,-22.594,-12.4422,0.449044,1.74991,0.199599
4,1,0.00170962,0.00212526,0.0160491,0.031386,0.00362907,0.00313718,0.000338749,0.167524,104.977,6.0982,17.8931,97.2563,-13.6773,10.972,88.318,-26.0682,-1.44992,82.786,-39.1227,-12.5001,149.111,1.64204,19.0484,171.793,-3.16224,18.182,191.63,-6.55985,17.7389,149.13,-24.9361,3.51022,175.712,-30.5059,-1.52344,193.465,-36.6202,-6.4746,133.178,-41.6167,-6.00383,154.254,-51.8882,-8.02511,172.705,-59.0553,-5.4698,110.424,-54.3619,-15.672,126.671,-63.5955,-16.8207,137.07,-77.1472,-21.4597,85.3951,62.2549,0.36174,114.832,63.5739,4.30648,139.696,69.7189,-4.83753,38.7819,-0.858298,3.99746,50.6461,44.2531,-4.27015,35.7977,-22.594,-12.4416,0.450265,1.74804,0.198983
4,1,0.00175619,0.00219761,0.0166237,0.0317275,0.00366801,0.00307376,0.000329697,0.167648,104.98,6.10119,17.8733,97.2597,-13.6723,10.9492,88.3175,-26.0667,-1.4539,82.7902,-39.1191,-12.5101,149.113,1.64924,19.0208,171.8,-3.15843,18.1492,191.636,-6.55583,17.7033,149.132,-24.9326,3.48938,175.716,-30.5007,-1.55082,193.464,-36.6144,-6.50466,133.176,-41.6136,-6.02344,154.255,-51.885,-8.04948,172.707,-59.0505,-5.49888,110.426,-54.3597,-15.6841,126.669,-63.591,-16.8413,137.073,-77.1423,-21.4814,85.4009,62.2502,0.351303,114.827,63.5683,4.29392,139.706,69.7356,-4.82217,38.784,-0.86115,3.99614,50.6472,44.255,-4.27011,35.7955,-22.5938,-12.4411,0.451297,1.74607,0.198394
4,1,0.00179804,0.00226988,0.0172206,0.0319947,0.00370318,0.00301175,0.000319696,0.167617,104.984,6.10415,17.8513,97.2641,-13.6673,10.9238,88.3177,-26.0652,-1.45978,82.7949,-39.1153,-12.5216,149.117,1.65662,18.9892,171.807,-3.15432,18.112,191.643,-6.55139,17.6623,149.134,-24.929,3.46445,175.721,-30.4949,-1.58275,193.463,-36.6078,-6.54031,133.175,-41.61,-6.04693,154.256,-51.8814,-8.07828,172.709,-59.0454,-5.53299,110.429,-54.3572,-15.6992,126.668,-63.586,-16.8657,137.075,-77.1369,-21.507,85.4067,62.2458,0.339788,114.823,63.5636,4.27987,139.718,69.7545,-4.80873,38.7869,-0.863896,3.99486,50.6485,44.2568,-4.27009,35.7934,-22.5936,-12.4405,0.452134,1.744,0.197833
4,1,0.00183485,0.00234151,0.0178335,0.0321868,0.0037345,0.00295108,0.000308822,0.167422,104.989,6.10706,17.827,97.2695,-13.6623,10.8958,88.3186,-26.0637,-1.46752,82.8,-39.1112,-12.5347,149.121,1.66417,18.9537,171.816,-3.14992,18.0705,191.651,-6.54654,17.6161,149.137,-24.9254,3.43552,175.727,-30.4885,-1.61914,193.463,-36.6005,-6.58143,133.174,-41.6061,-6.07421,154.258,-51.8776,-8.11138,172.712,-59.0399,-5.57201,110.432,-54.3542,-15.717,126.667,-63.5807,-16.8935,137.077,-77.1309,-21.5365,85.4126,62.2418,0.327197,114.819,63.5598,4.26431,139.731,69.7753,-4.79732,38.7904,-0.866529,3.99364,50.6499,44.2588,-4.27009,35.7913,-22.5934,-12.44,0.452774,1.74182,0.1973
4,1,0.0018664,0.002412,0.0184556,0.0323031,0.00376206,0.00289162,0.000297164,0.167058,104.996,6.10991,17.8007,97.2759,-13.6572,10.8652,88.3201,-26.0622,-1.47707,82.8055,-39.1068,-12.5493,149.127,1.67186,18.9143,171.825,-3.14522,18.0248,191.66,-6.54131,17.5648,149.141,-24.9217,3.4027,175.734,-30.4817,-1.65985,193.463,-36.5927,-6.62788,133.174,-41.6018,-6.1052,154.26,-51.8734,-8.14869,172.715,-59.034,-5.6158,110.434,-54.351,-15.7376,126.666,-63.5749,-16.9249,137.08,-77.1244,-21.5697,85.4186,62.2382,0.313531,114.814,63.5569,4.24724,139.746,69.7981,-4.78806,38.7945,-0.869043,3.99246,50.6515,44.2607,-4.27012,35.7893,-22.593,-12.4395,0.453213,1.73953,0.196796
4,1,0.00189252,0.00248084,0.0190799,0.032344,0.00378608,0.00283319,0.000284823,0.166522,105.003,6.1127,17.7723,97.2832,-13.6521,10.8322,88.3223,-26.0608,-1.48838,82.8114,-39.1021,-12.5653,149.133,1.67968,18.8714,171.836,-3.14025,17.9751,191.671,-6.5357,17.5084,149.146,-24.9179,3.36611,175.741,-30.4743,-1.70474,193.464,-36.5841,-6.67948,133.174,-41.5972,-6.1398,154.262,-51.869,-8.19005,172.719,-59.0279,-5.66422,110.437,-54.3473,-15.7608,126.665,-63.5687,-16.9597,137.082,-77.1173,-21.6066,85.4247,62.2349,0.298796,114.81,63.5548,4.22866,139.762,69.8226,-4.78105,38.7993,-0.871429,3.99135,50.6532,44.2627,-4.27017,35.7874,-22.5926,-12.439,0.453448,1.73715,0.196323
4,1,0.00191309,0.00254758,0.0196993,0.0323097,0.00380693,0.00277553,0.000271912,0.165814,105.012,6.11542,17.742,97.2914,-13.647,10.7969,88.3251,-26.0595,-1.50138,82.8176,-39.0972,-12.5827,149.141,1.68761,18.8248,171.847,-3.13501,17.9215,191.682,-6.52974,17.4473,149.151,-24.9141,3.32587,175.749,-30.4665,-1.75365,193.465,-36.575,-6.73605,133.175,-41.5922,-6.1779,154.265,-51.8643,-8.23532,172.723,-59.0214,-5.71709,110.441,-54.3433,-15.7867,126.664,-63.5622,-16.9977,137.085,-77.1098,-21.647,85.4309,62.232,0.283001,114.806,63.5537,4.20859,139.781,69.8489,-4.77642,38.8048,-0.873683,3.99029,50.655,44.2648,-4.27024,35.7855,-22.5922,-12.4384,0.453478,1.73466,0.195882
4,1,0.00192806,0.00261177,0.0203063,0.0322012,0.00382511,0.00271839,0.00025855,0.164938,105.022,6.11806,17.7098,97.3005,-13.6418,10.7593,88.3285,-26.0582,-1.51601,82.8243,-39.0921,-12.6013,149.15,1.69563,18.7749,171.859,-3.12953,17.8642,191.695,-6.52346,17.3816,149.157,-24.9103,3.28212,175.758,-30.4582,-1.8064,193.467,-36.5653,-6.79739,133.176,-41.5869,-6.21935,154.267,-51.8593,-8.28435,172.727,-59.0147,-5.77424,110.444,-54.339,-15.815,126.663,-63.5553,-17.0388,137.088,-77.1018,-21.6907,85.4372,62.2294,0.266154,114.801,63.5533,4.18701,139.802,69.8767,-4.7743,38.8109,-0.875799,3.9893,50.6569,44.2668,-4.27034,35.7838,-22.5917,-12.4379,0.4533,1.73208,0.195472
4,1,0.00193744,0.00267302,0.0208937,0.0320199,0.00384125,0.00266149,0.000244864,0.163903,105.033,6.12061,17.6759,97.3105,-13.6368,10.7196,88.3326,-26.0569,-1.53219,82.8312,-39.0868,-12.6212,149.16,1.70371,18.7218,171.873,-3.12381,17.8034,191.708,-6.51686,17.3116,149.163,-24.9064,3.23502,175.767,-30.4495,-1.86281,193.469,-36.5551,-6.8633,133.177,-41.5812,-6.26404,154.271,-51.854,-8.33696,172.732,-59.0077,-5.83546,110.448,-54.3344,-15.8457,126.663,-63.5481,-17.083,137.091,-77.0934,-21.7376,85.4436,62.2271,0.24827,114.797,63.5539,4.16395,139.824,69.906,-4.7748,38.8175,-0.877771,3.98838,50.659,44.2689,-4.27046,35.7821,-22.5911,-12.4374,0.452914,1.7294,0.195094
4,1,0.00194131,0.00273098,0.0214541,0.0317675,0.0038561,0.00260457,0.000230986,0.162718,105.044,6.12308,17.6404,97.3213,-13.6317,10.6779,88.3372,-26.0557,-1.54986,82.8385,-39.0812,-12.6422,149.171,1.71185,18.6655,171.887,-3.11786,17.7392,191.723,-6.50997,17.2374,149.17,-24.9025,3.18473,175.777,-30.4403,-1.9227,193.471,-36.5443,-6.93353,133.179,-41.5753,-6.31182,154.274,-51.8485,-8.39296,172.737,-59.0005,-5.90056,110.451,-54.3294,-15.8787,126.663,-63.5406,-17.13,137.093,-77.0846,-21.7875,85.4501,62.2251,0.229362,114.794,63.5552,4.13939,139.849,69.9365,-4.77806,38.8248,-0.879597,3.98754,50.6612,44.2711,-4.2706,35.7805,-22.5905,-12.4369,0.45232,1.72662,0.19475
4,1,0.00193977,0.00278535,0.0219805,0.031446,0.00387049,0.00254739,0.00021705,0.161399,105.057,6.12544,17.6033,97.3329,-13.6267,10.6342,88.3424,-26.0546,-1.56892,82.8462,-39.0755,-12.6643,149.183,1.72003,18.6064,171.902,-3.11171,17.672,191.738,-6.50282,17.1592,149.178,-24.8986,3.13142,175.787,-30.4308,-1.98584,193.474,-36.5331,-7.00785,133.181,-41.5691,-6.36253,154.278,-51.8428,-8.45218,172.742,-58.9931,-5.96931,110.455,-54.3242,-15.9138,126.662,-63.5328,-17.1797,137.096,-77.0753,-21.8402,85.4568,62.2233,0.209446,114.791,63.5573,4.11335,139.876,69.9681,-4.78421,38.8326,-0.881271,3.98677,50.6635,44.2733,-4.27077,35.779,-22.5898,-12.4365,0.451516,1.72375,0.194438
4,1,0.00193301,0.00283587,0.0224662,0.0310578,0.00388535,0.00248978,0.000203193,0.159963,105.071,6.1277,17.5649,97.3452,-13.6218,10.5888,88.3481,-26.0535,-1.58931,82.8541,-39.0696,-12.6874,149.196,1.72822,18.5446,171.917,-3.10536,17.6019,191.754,-6.49542,17.0774,149.186,-24.8946,3.07527,175.797,-30.421,-2.05203,193.478,-36.5213,-7.086,133.183,-41.5626,-6.41601,154.282,-51.8368,-8.5144,172.748,-58.9854,-6.04147,110.459,-54.3186,-15.951,126.662,-63.5246,-17.232,137.099,-77.0657,-21.8957,85.4636,62.2219,0.188542,114.788,63.5601,4.08583,139.905,70.0007,-4.79339,38.841,-0.882792,3.98608,50.666,44.2755,-4.27096,35.7775,-22.5891,-12.436,0.450504,1.72079,0.194161
4,1,0.00192122,0.00288233,0.0229046,0.0306059,0.00390164,0.00243162,0.00018955,0.158431,105.085,6.12985,17.5251,97.3582,-13.6169,10.5417,88.3544,-26.0525,-1.61092,82.8622,-39.0635,-12.7113,149.209,1.73641,18.4802,171.933,-3.09883,17.5291,191.772,-6.4878,16.9922,149.194,-24.8907,3.01647,175.808,-30.4108,-2.12103,193.481,-36.5092,-7.1677,133.186,-41.5558,-6.47209,154.286,-51.8307,-8.57941,172.753,-58.9776,-6.11683,110.463,-54.3128,-15.99,126.663,-63.5163,-17.2867,137.102,-77.0557,-21.9536,85.4707,62.2207,0.166667,114.785,63.5637,4.05684,139.936,70.034,-4.80575,38.8499,-0.884158,3.98549,50.6685,44.2777,-4.27118,35.7762,-22.5883,-12.4355,0.449285,1.71775,0.193917
4,1,0.00190468,0.0029246,0.02329,0.0300932,0.00392039,0.00237288,0.000176255,0.156827,105.1,6.13189,17.4842,97.3719,-13.6121,10.4931,88.3611,-26.0515,-1.63366,82.8707,-39.0573,-12.7361,149.224,1.74458,18.4136,171.95,-3.09214,17.4538,191.789,-6.47997,16.9038,149.203,-24.8867,2.95522,175.82,-30.4003,-2.19262,193.486,-36.4966,-7.25269,133.189,-41.5488,-6.53059,154.29,-51.8243,-8.64699,172.759,-58.9696,-6.19511,110.467,-54.3068,-16.0308,126.663,-63.5076,-17.3436,137.105,-77.0454,-22.0138,85.4779,62.2197,0.143845,114.783,63.5679,4.02639,139.969,70.0678,-4.82143,38.8593,-0.885365,3.98498,50.6712,44.28,-4.27142,35.7749,-22.5874,-12.4351,0.44786,1.71462,0.193707
4,1,0.00188368,0.00296256,0.0236168,0.0295235,0.00394262,0.00231361,0.000163437,0.155176,105.116,6.13381,17.4423,97.3862,-13.6074,10.4431,88.3684,-26.0507,-1.65746,82.8793,-39.051,-12.7616,149.239,1.75271,18.3448,171.967,-3.0853,17.3764,191.808,-6.47196,16.8126,149.213,-24.8828,2.89173,175.832,-30.3895,-2.26654,193.49,-36.4836,-7.34068,133.192,-41.5415,-6.59132,154.295,-51.8178,-8.71692,172.766,-58.9614,-6.27606,110.471,-54.3005,-16.0731,126.663,-63.4988,-17.4026,137.108,-77.0349,-22.076,85.4853,62.219,0.120098,114.782,63.5728,3.99447,140.005,70.102,-4.84059,38.8691,-0.886415,3.98457,50.674,44.2823,-4.27168,35.7738,-22.5865,-12.4347,0.446232,1.71141,0.193532
4,1,0.00185854,0.00299618,0.0238803,0.0289004,0.00396933,0.00225395,0.00015122,0.153507,105.132,6.13561,17.3995,97.401,-13.6028,10.3919,88.3761,-26.0499,-1.6822,82.8882,-39.0445,-12.7877,149.255,1.76079,18.2742,171.985,-3.07833,17.2971,191.827,-6.46379,16.7188,149.223,-24.8788,2.82619,175.844,-30.3785,-2.34256,193.495,-36.4703,-7.43136,133.196,-41.534,-6.6541,154.3,-51.8111,-8.78896,172.772,-58.9532,-6.35943,110.476,-54.2939,-16.117,126.664,-63.4897,-17.4634,137.111,-77.024,-22.1402,85.4929,62.2184,0.0954494,114.782,63.5783,3.9611,140.042,70.1362,-4.86338,38.8794,-0.887306,3.98427,50.6769,44.2847,-4.27196,35.7727,-22.5856,-12.4342,0.444402,1.70811,0.19339
4,1,0.00182965,0.00302545,0.0240764,0.0282282,0.00400149,0.00219415,0.000139723,0.151847,105.15,6.13729,17.356,97.4163,-13.5984,10.3397,88.3842,-26.0491,-1.70779,82.8972,-39.038,-12.8144,149.272,1.7688,18.2018,172.003,-3.07124,17.216,191.847,-6.45548,16.6227,149.233,-24.8749,2.75884,175.856,-30.3672,-2.42041,193.5,-36.4566,-7.52443,133.2,-41.5263,-6.71873,154.305,-51.8042,-8.86289,172.778,-58.9448,-6.44494,110.48,-54.2871,-16.1621,126.664,-63.4805,-17.5259,137.114,-77.0129,-22.206,85.5008,62.218,0.0699241,114.782,63.5843,3.92626,140.082,70.1704,-4.88997,38.89,-0.888039,3.98407,50.68,44.2871,-4.27226,35.7717,-22.5846,-12.4338,0.442373,1.70475,0.193282
4,1,0.00179738,0.00305042,0.0242018,0.0275113,0.00404002,0.00213454,0.000129055,0.150227,105.167,6.13883,17.3118,97.4321,-13.594,10.2865,88.3928,-26.0485,-1.73413,82.9065,-39.0313,-12.8415,149.289,1.77672,18.1281,172.022,-3.06404,17.1335,191.867,-6.44705,16.5246,149.244,-24.871,2.68988,175.869,-30.3557,-2.49983,193.505,-36.4427,-7.61959,133.204,-41.5184,-6.785,154.31,-51.7972,-8.93845,172.785,-58.9363,-6.53231,110.484,-54.2801,-16.2085,126.665,-63.4711,-17.5899,137.117,-77.0016,-22.2732,85.509,62.2178,0.0435479,114.783,63.5907,3.88997,140.124,70.2041,-4.92053,38.901,-0.888615,3.98399,50.6831,44.2894,-4.27259,35.7708,-22.5835,-12.4334,0.44015,1.70131,0.193208
4,1,0.00176215,0.00307115,0.0242538,0.0267546,0.00408573,0.00207558,0.000119315,0.148676,105.185,6.14025,17.2672,97.4483,-13.5898,10.2327,88.4017,-26.0479,-1.76112,82.9158,-39.0246,-12.869,149.307,1.78454,18.0531,172.04,-3.05676,17.0499,191.888,-6.43853,16.4248,149.255,-24.8671,2.61954,175.882,-30.344,-2.58057,193.511,-36.4285,-7.71652,133.208,-41.5103,-6.85272,154.315,-51.79,-9.0154,172.791,-58.9277,-6.62126,110.489,-54.273,-16.2558,126.666,-63.4615,-17.6552,137.12,-76.9901,-22.3417,85.5174,62.2177,0.0163471,114.785,63.5976,3.85221,140.168,70.2371,-4.95524,38.9124,-0.889036,3.98403,50.6863,44.2919,-4.27293,35.7699,-22.5824,-12.433,0.437735,1.6978,0.193167
4,1,0.00172439,0.00308775,0.0242307,0.0259631,0.00413934,0.00201776,0.000110594,0.147223,105.204,6.14154,17.2222,97.4648,-13.5857,10.1782,88.411,-26.0474,-1.78866,82.9253,-39.0179,-12.8967,149.325,1.79225,17.9772,172.059,-3.04941,16.9654,191.909,-6.42992,16.3237,149.266,-24.8632,2.54804,175.895,-30.3322,-2.66236,193.516,-36.414,-7.8149,133.212,-41.5021,-6.92168,154.321,-51.7827,-9.0935,172.798,-58.9191,-6.71152,110.493,-54.2656,-16.3039,126.666,-63.4518,-17.7216,137.123,-76.9784,-22.4113,85.5261,62.2177,-0.0116514,114.788,63.6049,3.81298,140.214,70.2692,-4.99427,38.924,-0.889304,3.98419,50.6897,44.2943,-4.2733,35.7692,-22.5813,-12.4327,0.435133,1.69423,0.193159
4,1,0.00168455,0.00310036,0.0241316,0.0251421,0.00420147,0.0019617,0.00010297,0.145897,105.222,6.14269,17.1771,97.4815,-13.5818,10.1234,88.4206,-26.047,-1.81665,82.9349,-39.011,-12.9246,149.343,1.79983,17.9005,172.079,-3.04199,16.8802,191.93,-6.42125,16.2215,149.277,-24.8594,2.47562,175.908,-30.3202,-2.74493,193.522,-36.3994,-7.91441,133.217,-41.4937,-6.99166,154.326,-51.7753,-9.1725,172.805,-58.9104,-6.8028,110.498,-54.2581,-16.3528,126.667,-63.442,-17.7889,137.126,-76.9665,-22.4816,85.5352,62.2178,-0.0404204,114.792,63.6124,3.77228,140.263,70.3001,-5.03782,38.9359,-0.889423,3.98448,50.6931,44.2968,-4.27368,35.7686,-22.5801,-12.4323,0.432348,1.69059,0.193184
4,1,0.0016431,0.00310912,0.0239566,0.0242972,0.00427256,0.00190805,9.65115e-05,0.144724,105.242,6.14371,17.1319,97.4985,-13.578,10.0683,88.4305,-26.0467,-1.84498,82.9446,-39.0042,-12.9526,149.362,1.80727,17.8234,172.098,-3.03453,16.7947,191.952,-6.41254,16.1185,149.289,-24.8555,2.40249,175.921,-30.3082,-2.82802,193.528,-36.3845,-8.01474,133.222,-41.4852,-7.06246,154.332,-51.7678,-9.25215,172.811,-58.9017,-6.89482,110.502,-54.2504,-16.4021,126.668,-63.4321,-17.857,137.13,-76.9546,-22.5525,85.5446,62.218,-0.0699324,114.798,63.6201,3.73008,140.313,70.3294,-5.08607,38.948,-0.889396,3.98492,50.6966,44.2993,-4.27408,35.768,-22.5789,-12.432,0.429384,1.6869,0.19324
4,1,0.0016005,0.00311417,0.0237065,0.0234341,0.00435296,0.00185751,9.12726e-05,0.143727,105.261,6.14459,17.0869,97.5157,-13.5744,10.0131,88.4406,-26.0464,-1.87356,82.9543,-38.9973,-12.9805,149.381,1.81456,17.7459,172.117,-3.02705,16.709,191.973,-6.4038,16.015,149.3,-24.8517,2.32889,175.935,-30.296,-2.91135,193.535,-36.3695,-8.11557,133.226,-41.4765,-7.13387,154.337,-51.7602,-9.3322,172.818,-58.8929,-6.9873,110.507,-54.2426,-16.4519,126.67,-63.4221,-17.9255,137.133,-76.9425,-22.6238,85.5543,62.2182,-0.10016,114.804,63.628,3.68637,140.365,70.357,-5.13923,38.9603,-0.889227,3.98549,50.7003,44.3018,-4.2745,35.7675,-22.5777,-12.4316,0.426247,1.68315,0.193328
4,1,0.00155723,0.00311567,0.0233832,0.0225586,0.00444284,0.00181081,8.72955e-05,0.142929,105.28,6.14534,17.0421,97.533,-13.571,9.95806,88.451,-26.0462,-1.90228,82.9641,-38.9904,-13.0084,149.4,1.82168,17.6685,172.136,-3.01954,16.6236,191.995,-6.39505,15.9114,149.312,-24.848,2.25504,175.948,-30.2837,-2.99467,193.541,-36.3544,-8.21656,133.231,-41.4678,-7.20568,154.343,-51.7526,-9.41241,172.824,-58.8842,-7.07994,110.511,-54.2347,-16.5018,126.671,-63.4121,-17.9944,137.136,-76.9304,-22.6953,85.5644,62.2185,-0.131076,114.812,63.6359,3.64114,140.418,70.3823,-5.19749,38.9727,-0.888922,3.98621,50.704,44.3043,-4.27494,35.7671,-22.5764,-12.4313,0.422943,1.67934,0.193446
4,1,0.00151378,0.00311377,0.0229894,0.0216767,0.00454223,0.00176869,8.46094e-05,0.142346,105.3,6.14595,16.9977,97.5503,-13.5677,9.90325,88.4616,-26.0461,-1.93105,82.9739,-38.9836,-13.036,149.42,1.82863,17.5912,172.155,-3.01203,16.5385,192.017,-6.38631,15.808,149.324,-24.8442,2.18118,175.961,-30.2714,-3.07771,193.547,-36.3391,-8.31742,133.236,-41.4589,-7.27768,154.349,-51.7448,-9.49254,172.831,-58.8754,-7.17249,110.516,-54.2266,-16.5518,126.672,-63.402,-18.0635,137.139,-76.9182,-22.7667,85.5749,62.2187,-0.162653,114.822,63.6438,3.59436,140.474,70.4052,-5.26106,38.9853,-0.888484,3.98709,50.7078,44.3069,-4.27539,35.7668,-22.5751,-12.431,0.419475,1.67549,0.193594
4,1,0.00147063,0.00310859,0.0225287,0.0207946,0.00465105,0.00173188,8.32305e-05,0.141995,105.319,6.14644,16.9538,97.5677,-13.5647,9.84887,88.4724,-26.0461,-1.95976,82.9837,-38.9767,-13.0633,149.439,1.83539,17.5143,172.174,-3.00453,16.4541,192.039,-6.37759,15.705,149.336,-24.8405,2.10751,175.974,-30.2591,-3.16021,193.554,-36.3238,-8.41781,133.241,-41.45,-7.34966,154.354,-51.737,-9.57234,172.837,-58.8666,-7.26465,110.52,-54.2184,-16.6017,126.674,-63.3918,-18.1325,137.142,-76.906,-22.8379,85.5859,62.219,-0.194864,114.833,63.6516,3.54601,140.531,70.4253,-5.33015,38.9979,-0.887921,3.98812,50.7116,44.3094,-4.27586,35.7665,-22.5738,-12.4307,0.415851,1.67159,0.193771
4,1,0.00142825,0.00310026,0.0220056,0.0199182,0.00476908,0.00170106,8.31621e-05,0.141885,105.338,6.14679,16.9106,97.585,-13.5618,9.79508,88.4833,-26.0461,-1.98832,82.9934,-38.9698,-13.0903,149.458,1.84196,17.4382,172.193,-2.99704,16.3706,192.061,-6.3689,15.6028,149.348,-24.8368,2.03427,175.987,-30.2467,-3.24192,193.561,-36.3084,-8.51745,133.247,-41.441,-7.42141,154.36,-51.7292,-9.65158,172.844,-58.8579,-7.35615,110.525,-54.2102,-16.6513,126.675,-63.3817,-18.2013,137.145,-76.8937,-22.9087,85.5973,62.2192,-0.227684,114.846,63.6592,3.49605,140.589,70.4422,-5.40498,39.0105,-0.887238,3.98932,50.7156,44.312,-4.27635,35.7663,-22.5724,-12.4304,0.412076,1.66764,0.193976
4,1,0.00138712,0.00308888,0.0214253,0.0190536,0.00489598,0.00167688,8.43943e-05,0.142023,105.358,6.14701,16.8682,97.6021,-13.5591,9.74205,88.4943,-26.0462,-2.01664,83.0032,-38.963,-13.1168,149.478,1.84833,17.3629,172.212,-2.98958,16.2884,192.082,-6.36025,15.5016,149.36,-24.8332,1.96167,176,-30.2343,-3.32258,193.567,-36.293,-8.61601,133.252,-41.4319,-7.49274,154.366,-51.7213,-9.73003,172.85,-58.8491,-7.44674,110.529,-54.2019,-16.7005,126.677,-63.3716,-18.2696,137.148,-76.8815,-22.9787,85.6091,62.2194,-0.261086,114.861,63.6664,3.44445,140.649,70.4557,-5.48577,39.0231,-0.886442,3.99069,50.7196,44.3146,-4.27685,35.7662,-22.5711,-12.4302,0.408155,1.66365,0.194208
4,1,0.00134772,0.00307451,0.0207938,0.018207,0.00503135,0.0016599,8.6905e-05,0.142411,105.377,6.14711,16.8267,97.6191,-13.5566,9.68993,88.5054,-26.0464,-2.04462,83.0129,-38.9563,-13.1428,149.497,1.85449,17.2887,172.23,-2.98216,16.2075,192.104,-6.35166,15.4017,149.372,-24.8295,1.88992,176.013,-30.2219,-3.40196,193.574,-36.2775,-8.71322,133.257,-41.4227,-7.56345,154.372,-51.7133,-9.80746,172.856,-58.8404,-7.53615,110.534,-54.1935,-16.7492,126.678,-63.3615,-18.3374,137.152,-76.8693,-23.048,85.6215,62.2196,-0.295045,114.877,63.6733,3.39117,140.709,70.4653,-5.57274,39.0356,-0.88554,3.99224,50.7237,44.3173,-4.27736,35.7662,-22.5697,-12.4299,0.404095,1.65962,0.194466
4,1,0.00131051,0.00305724,0.0201179,0.0173841,0.00517473,0.0016506,9.06597e-05,0.143049,105.395,6.14709,16.7863,97.6359,-13.5543,9.63888,88.5165,-26.0467,-2.07217,83.0225,-38.9496,-13.1681,149.516,1.86044,17.2158,172.248,-2.97478,16.1283,192.125,-6.34314,15.3034,149.384,-24.8259,1.81923,176.026,-30.2096,-3.4798,193.58,-36.262,-8.80877,133.262,-41.4136,-7.63333,154.377,-51.7053,-9.88365,172.862,-58.8317,-7.62412,110.538,-54.1851,-16.7971,126.68,-63.3514,-18.4043,137.155,-76.8571,-23.1162,85.6344,62.2196,-0.329537,114.896,63.6797,3.33617,140.771,70.4706,-5.66612,39.0481,-0.884539,3.99396,50.7279,44.3199,-4.27788,35.7662,-22.5683,-12.4297,0.399901,1.65555,0.194749
4,1,0.00127594,0.00303709,0.0194049,0.016591,0.00532562,0.00164935,9.56124e-05,0.143931,105.414,6.14694,16.747,97.6524,-13.5522,9.58905,88.5277,-26.047,-2.09921,83.032,-38.9429,-13.1928,149.535,1.86618,17.1445,172.265,-2.96745,16.0509,192.146,-6.33468,15.207,149.395,-24.8223,1.74981,176.038,-30.1973,-3.55588,193.587,-36.2466,-8.90238,133.267,-41.4044,-7.70221,154.383,-51.6973,-9.95838,172.868,-58.823,-7.71042,110.542,-54.1766,-16.8443,126.682,-63.3413,-18.4704,137.158,-76.845,-23.1833,85.6478,62.2195,-0.364539,114.917,63.6855,3.27941,140.833,70.4714,-5.76613,39.0604,-0.883447,3.99587,50.7321,44.3226,-4.27842,35.7663,-22.5668,-12.4294,0.395581,1.65145,0.195056
4,1,0.00124445,0.00301412,0.0186626,0.0158333,0.00548354,0.0016564,0.000101706,0.145048,105.432,6.14669,16.7091,97.6686,-13.5503,9.54059,88.5389,-26.0474,-2.12565,83.0414,-38.9363,-13.2167,149.554,1.8717,17.0749,172.282,-2.96018,15.9757,192.166,-6.3263,15.1127,149.407,-24.8187,1.68186,176.05,-30.185,-3.62998,193.593,-36.2312,-8.99379,133.272,-41.3951,-7.76989,154.388,-51.6893,-10.0315,172.874,-58.8144,-7.79479,110.546,-54.168,-16.8904,126.684,-63.3313,-18.5353,137.162,-76.833,-23.2489,85.6617,62.2194,-0.400028,114.939,63.6906,3.22082,140.896,70.4673,-5.873,39.0726,-0.88227,3.99796,50.7364,44.3253,-4.27897,35.7664,-22.5654,-12.4292,0.391139,1.64731,0.195386
4,1,0.00121649,0.00298837,0.0178993,0.0151167,0.00564807,0.00167187,0.000108872,0.146388,105.449,6.14632,16.6726,97.6844,-13.5486,9.49363,88.55,-26.0478,-2.15141,83.0507,-38.9298,-13.2398,149.572,1.87699,17.0073,172.298,-2.95297,15.9028,192.186,-6.31801,15.0208,149.418,-24.8152,1.61555,176.062,-30.1728,-3.70188,193.6,-36.2158,-9.08273,133.278,-41.3859,-7.83619,154.394,-51.6812,-10.1027,172.879,-58.8058,-7.87702,110.551,-54.1595,-16.9354,126.686,-63.3213,-18.5989,137.165,-76.821,-23.313,85.6763,62.219,-0.435983,114.965,63.6949,3.16037,140.959,70.4578,-5.98696,39.0845,-0.881019,4.00024,50.7408,44.328,-4.27952,35.7666,-22.5639,-12.429,0.386583,1.64314,0.195737
4,1,0.00119247,0.00295986,0.0171236,0.0144465,0.00581885,0.00169573,0.000117034,0.147936,105.467,6.14586,16.6376,97.6998,-13.5471,9.44833,88.561,-26.0483,-2.17642,83.0598,-38.9233,-13.2619,149.59,1.88207,16.9418,172.314,-2.94583,15.8323,192.206,-6.3098,14.9314,149.429,-24.8116,1.55109,176.074,-30.1607,-3.77137,193.606,-36.2005,-9.16894,133.283,-41.3767,-7.90095,154.399,-51.6732,-10.1719,172.885,-58.7973,-7.95688,110.555,-54.1509,-16.9793,126.689,-63.3115,-18.6611,137.168,-76.8091,-23.3754,85.6915,62.2186,-0.472383,114.992,63.6982,3.09799,141.022,70.4427,-6.10824,39.0962,-0.879699,4.00271,50.7452,44.3308,-4.28009,35.7669,-22.5625,-12.4288,0.381917,1.63894,0.196109
4,1,0.00117279,0.00292866,0.0163443,0.0138279,0.00599562,0.00172784,0.000126105,0.149674,105.483,6.1453,16.6043,97.7148,-13.5457,9.4048,88.5719,-26.0488,-2.2006,83.0688,-38.917,-13.2832,149.607,1.88693,16.8786,172.329,-2.93876,15.7646,192.225,-6.30167,14.845,149.44,-24.808,1.48864,176.085,-30.1486,-3.83825,193.612,-36.1852,-9.25219,133.288,-41.3674,-7.96399,154.405,-51.6651,-10.2388,172.89,-58.7887,-8.03415,110.559,-54.1423,-17.0217,126.691,-63.3016,-18.7218,137.172,-76.7973,-23.4359,85.7073,62.218,-0.509208,115.022,63.7006,3.03362,141.086,70.4215,-6.23707,39.1075,-0.87832,4.00538,50.7497,44.3335,-4.28067,35.7672,-22.561,-12.4286,0.377149,1.63471,0.1965
4,1,0.00115786,0.00289486,0.0155703,0.0132661,0.00617831,0.00176788,0.000135991,0.151583,105.499,6.14465,16.5727,97.7292,-13.5446,9.36318,88.5828,-26.0493,-2.22387,83.0776,-38.9107,-13.3034,149.624,1.89158,16.8179,172.343,-2.93175,15.6998,192.244,-6.29363,14.7616,149.45,-24.8044,1.42837,176.096,-30.1366,-3.90234,193.618,-36.1701,-9.33225,133.292,-41.3582,-8.02516,154.41,-51.657,-10.3033,172.895,-58.7802,-8.10865,110.563,-54.1338,-17.0627,126.693,-63.2919,-18.7807,137.175,-76.7856,-23.4945,85.7238,62.2171,-0.546441,115.055,63.7018,2.96719,141.148,70.3938,-6.37367,39.1186,-0.87689,4.00824,50.7542,44.3364,-4.28125,35.7675,-22.5596,-12.4285,0.372284,1.63045,0.196908
4,1,0.00114805,0.00285857,0.0148105,0.0127658,0.00636698,0.00181541,0.00014659,0.153642,105.514,6.14391,16.5429,97.743,-13.5437,9.32357,88.5934,-26.0499,-2.24618,83.0862,-38.9045,-13.3225,149.641,1.89601,16.7598,172.357,-2.92481,15.638,192.261,-6.28567,14.6814,149.461,-24.8008,1.37045,176.106,-30.1247,-3.96345,193.624,-36.155,-9.40889,133.297,-41.3489,-8.0843,154.415,-51.6488,-10.3653,172.899,-58.7717,-8.18017,110.567,-54.1252,-17.1022,126.696,-63.2822,-18.8377,137.179,-76.774,-23.5508,85.741,62.2162,-0.584064,115.091,63.7017,2.89864,141.211,70.3594,-6.51827,39.1293,-0.875417,4.0113,50.7588,44.3392,-4.28184,35.7679,-22.5581,-12.4283,0.367327,1.62616,0.197334
4,1,0.00114373,0.00281997,0.0140734,0.0123317,0.0065619,0.00186985,0.000157795,0.155829,105.529,6.14311,16.5151,97.7563,-13.5429,9.2861,88.6039,-26.0505,-2.26746,83.0946,-38.8984,-13.3405,149.657,1.90024,16.7045,172.37,-2.91794,15.5795,192.279,-6.2778,14.6047,149.47,-24.7971,1.31502,176.116,-30.1128,-4.02142,193.63,-36.1399,-9.4819,133.302,-41.3397,-8.14126,154.421,-51.6407,-10.4245,172.904,-58.7632,-8.24854,110.57,-54.1166,-17.1399,126.698,-63.2727,-18.8928,137.183,-76.7626,-23.605,85.7589,62.2149,-0.622062,115.129,63.7002,2.8279,141.272,70.3178,-6.6711,39.1396,-0.873909,4.01456,50.7634,44.3421,-4.28244,35.7683,-22.5567,-12.4281,0.362285,1.62185,0.197774
4,1,0.00114524,0.00277928,0.0133677,0.0119679,0.00676355,0.00193049,0.000169492,0.158122,105.542,6.14224,16.4892,97.769,-13.5424,9.25087,88.6142,-26.0512,-2.28764,83.1028,-38.8924,-13.3574,149.672,1.90426,16.6522,172.382,-2.91113,15.5243,192.295,-6.26999,14.5317,149.48,-24.7935,1.26225,176.126,-30.101,-4.07609,193.636,-36.125,-9.55111,133.306,-41.3305,-8.19592,154.426,-51.6325,-10.4809,172.908,-58.7547,-8.31359,110.574,-54.108,-17.1759,126.701,-63.2632,-18.9458,137.186,-76.7512,-23.6567,85.7775,62.2135,-0.660418,115.17,63.6973,2.7549,141.332,70.2687,-6.83236,39.1495,-0.872374,4.01801,50.7681,44.345,-4.28304,35.7687,-22.5552,-12.428,0.357163,1.6175,0.198229
4,1,0.00115291,0.00273679,0.0127012,0.0116785,0.00697264,0.00199652,0.000181566,0.160498,105.555,6.14132,16.4654,97.7809,-13.542,9.21798,88.6242,-26.0518,-2.30668,83.1108,-38.8865,-13.3731,149.687,1.90809,16.6029,172.394,-2.90438,15.4726,192.311,-6.26225,14.4624,149.489,-24.7897,1.21225,176.135,-30.0893,-4.12731,193.641,-36.1101,-9.61631,133.311,-41.3213,-8.24813,154.43,-51.6243,-10.5343,172.912,-58.7463,-8.37516,110.578,-54.0995,-17.21,126.704,-63.2538,-18.9965,137.19,-76.74,-23.7059,85.7969,62.2119,-0.69912,115.214,63.6927,2.67956,141.391,70.2117,-7.00227,39.1589,-0.870821,4.02165,50.7728,44.3479,-4.28364,35.7692,-22.5538,-12.4279,0.351967,1.61313,0.198697
4,1,0.00116707,0.00269287,0.0120815,0.0114672,0.0071901,0.00206702,0.000193895,0.162936,105.567,6.14035,16.4438,97.7922,-13.5417,9.18751,88.634,-26.0524,-2.32453,83.1185,-38.8807,-13.3875,149.7,1.91173,16.5569,172.404,-2.89769,15.4246,192.326,-6.25457,14.3972,149.498,-24.7859,1.16515,176.143,-30.0777,-4.17495,193.646,-36.0953,-9.67736,133.315,-41.3122,-8.29778,154.435,-51.6161,-10.5845,172.916,-58.7378,-8.43311,110.581,-54.091,-17.2422,126.707,-63.2444,-19.0449,137.194,-76.7289,-23.7526,85.8171,62.21,-0.738154,115.261,63.6864,2.6018,141.448,70.1465,-7.18104,39.1679,-0.869256,4.02549,50.7776,44.3509,-4.28425,35.7697,-22.5524,-12.4277,0.346701,1.60873,0.199176
4,1,0.00118798,0.00264796,0.0115154,0.0113372,0.00741706,0.00214098,0.000206359,0.165414,105.579,6.13935,16.4244,97.8027,-13.5417,9.15954,88.6435,-26.0531,-2.34113,83.126,-38.8749,-13.4007,149.714,1.9152,16.5142,172.414,-2.89104,15.3803,192.34,-6.24693,14.336,149.506,-24.7821,1.12109,176.151,-30.0661,-4.21888,193.652,-36.0806,-9.73408,133.319,-41.303,-8.34475,154.44,-51.6079,-10.6315,172.92,-58.7293,-8.48729,110.585,-54.0825,-17.2723,126.71,-63.2352,-19.0908,137.198,-76.718,-23.7965,85.8381,62.2079,-0.777509,115.312,63.6783,2.52155,141.502,70.0727,-7.36886,39.1763,-0.867687,4.02951,50.7824,44.3539,-4.28487,35.7702,-22.551,-12.4276,0.341371,1.6043,0.199665
4,1,0.00121593,0.00260259,0.0110092,0.0112913,0.00765487,0.00221735,0.000218834,0.167913,105.589,6.13833,16.4072,97.8124,-13.5417,9.13416,88.6527,-26.0537,-2.35644,83.1332,-38.8693,-13.4125,149.726,1.91851,16.475,172.422,-2.88443,15.3398,192.354,-6.23933,14.2791,149.514,-24.7781,1.08016,176.159,-30.0546,-4.25899,193.657,-36.066,-9.78634,133.323,-41.2939,-8.38894,154.445,-51.5996,-10.6752,172.923,-58.7207,-8.53759,110.588,-54.074,-17.3004,126.714,-63.2261,-19.1343,137.202,-76.7071,-23.8377,85.86,62.2056,-0.817173,115.366,63.6681,2.43873,141.555,69.9899,-7.56593,39.1841,-0.866123,4.03372,50.7873,44.357,-4.28548,35.7707,-22.5496,-12.4275,0.335982,1.59984,0.200164
4,1,0.00125115,0.00255736,0.0105683,0.0113321,0.00790503,0.00229502,0.000231201,0.170412,105.598,6.1373,16.3923,97.8214,-13.542,9.11142,88.6615,-26.0543,-2.37042,83.1402,-38.8637,-13.423,149.738,1.92166,16.4392,172.43,-2.87785,15.3033,192.366,-6.23175,14.2265,149.522,-24.7741,1.04246,176.166,-30.0432,-4.29517,193.661,-36.0515,-9.83401,133.327,-41.2848,-8.43025,154.449,-51.5912,-10.7153,172.926,-58.7121,-8.5839,110.592,-54.0655,-17.3263,126.717,-63.217,-19.1751,137.207,-76.6964,-23.8759,85.8827,62.203,-0.857138,115.423,63.6559,2.35325,141.605,69.898,-7.77242,39.1914,-0.864568,4.03811,50.7922,44.3601,-4.2861,35.7713,-22.5483,-12.4274,0.330538,1.59536,0.200669
4,1,0.00129385,0.00251296,0.0101969,0.0114611,0.00816918,0.00237285,0.000243338,0.172895,105.606,6.13626,16.3798,97.8295,-13.5423,9.09139,88.67,-26.0548,-2.38304,83.1469,-38.8583,-13.4322,149.748,1.92468,16.4071,172.437,-2.87128,15.2709,192.378,-6.22417,14.1784,149.529,-24.77,1.00809,176.173,-30.0318,-4.32734,193.666,-36.037,-9.87697,133.331,-41.2756,-8.46859,154.453,-51.5829,-10.752,172.929,-58.7034,-8.62611,110.595,-54.0571,-17.35,126.721,-63.2081,-19.2132,137.211,-76.6858,-23.9113,85.9063,62.2001,-0.897394,115.483,63.6415,2.26505,141.652,69.7964,-7.98852,39.1981,-0.863032,4.04267,50.7972,44.3633,-4.28672,35.7718,-22.5469,-12.4273,0.325043,1.59083,0.201182
4,1,0.00134422,0.00247015,0.00989886,0.0116798,0.00844905,0.00244974,0.00025513,0.175346,105.614,6.13524,16.3697,97.8368,-13.5427,9.07411,88.6782,-26.0553,-2.39427,83.1532,-38.8529,-13.44,149.758,1.92757,16.3787,172.443,-2.86472,15.2425,192.388,-6.21657,14.1348,149.535,-24.7657,0.977133,176.179,-30.0204,-4.35541,193.67,-36.0225,-9.91513,133.334,-41.2665,-8.50389,154.458,-51.5744,-10.7851,172.932,-58.6947,-8.66414,110.598,-54.0487,-17.3714,126.725,-63.1992,-19.2485,137.215,-76.6753,-23.9436,85.9308,62.197,-0.937933,115.547,63.6248,2.17403,141.695,69.685,-8.21437,39.2041,-0.861518,4.0474,50.8022,44.3666,-4.28734,35.7723,-22.5456,-12.4272,0.319503,1.58628,0.201699
4,1,0.0014024,0.00242977,0.00967657,0.0119887,0.00874637,0.00252456,0.000266467,0.177748,105.62,6.13425,16.362,97.8432,-13.5433,9.05962,88.686,-26.0558,-2.40407,83.1593,-38.8476,-13.4465,149.767,1.93036,16.3541,172.448,-2.85815,15.2183,192.398,-6.20895,14.0958,149.541,-24.7614,0.949655,176.184,-30.009,-4.37932,193.674,-36.0082,-9.9484,133.338,-41.2575,-8.53606,154.462,-51.5659,-10.8144,172.935,-58.6859,-8.69792,110.601,-54.0404,-17.3905,126.728,-63.1903,-19.281,137.22,-76.6649,-23.9729,85.9563,62.1936,-0.978748,115.615,63.6056,2.08012,141.735,69.5635,-8.45012,39.2095,-0.860035,4.05228,50.8072,44.3699,-4.28797,35.7728,-22.5443,-12.4271,0.31392,1.58169,0.20222
4,1,0.00146849,0.00239268,0.00953159,0.0123877,0.00906289,0.00259625,0.000277243,0.180089,105.625,6.13329,16.3567,97.8487,-13.5439,9.04797,88.6933,-26.0562,-2.41243,83.1651,-38.8424,-13.4515,149.775,1.93307,16.3332,172.452,-2.85156,15.1983,192.407,-6.20128,14.0615,149.546,-24.7569,0.925721,176.189,-29.9977,-4.39901,193.678,-35.9938,-9.97669,133.341,-41.2484,-8.56505,154.466,-51.5573,-10.8401,172.937,-58.6769,-8.72736,110.604,-54.032,-17.4072,126.733,-63.1816,-19.3106,137.225,-76.6546,-23.9991,85.9827,62.19,-1.01983,115.686,63.5838,1.98325,141.771,69.4315,-8.69592,39.2143,-0.858586,4.05732,50.8124,44.3732,-4.28859,35.7733,-22.5431,-12.427,0.3083,1.57706,0.202744
4,1,0.00154255,0.00235982,0.00946444,0.0128761,0.00940019,0.00266381,0.000287362,0.182354,105.629,6.13239,16.3538,97.8532,-13.5447,9.03916,88.7002,-26.0565,-2.41933,83.1706,-38.8373,-13.4552,149.782,1.9357,16.3162,172.454,-2.84493,15.1825,192.414,-6.19353,14.032,149.551,-24.7522,0.905388,176.194,-29.9863,-4.41443,193.682,-35.9794,-9.99995,133.344,-41.2393,-8.5908,154.47,-51.5487,-10.8619,172.939,-58.6679,-8.75243,110.607,-54.0237,-17.4216,126.737,-63.1728,-19.3373,137.229,-76.6444,-24.0222,86.0101,62.1861,-1.06118,115.761,63.5594,1.88333,141.803,69.2888,-8.95188,39.2183,-0.857178,4.06251,50.8175,44.3767,-4.28921,35.7738,-22.5419,-12.4269,0.302645,1.5724,0.203269
4,1,0.00162459,0.00233214,0.00947457,0.0134521,0.00975973,0.00272632,0.000296735,0.184531,105.632,6.13156,16.3535,97.8569,-13.5454,9.03322,88.7067,-26.0567,-2.42474,83.1758,-38.8323,-13.4574,149.789,1.93827,16.3031,172.456,-2.83825,15.171,192.421,-6.18568,14.0073,149.555,-24.7474,0.8887,176.197,-29.9749,-4.42554,193.685,-35.9651,-10.0181,133.347,-41.2302,-8.61326,154.474,-51.5399,-10.88,172.941,-58.6586,-8.77307,110.61,-54.0155,-17.4335,126.741,-63.1642,-19.361,137.234,-76.6342,-24.0421,86.0385,62.1819,-1.10279,115.839,63.5322,1.78029,141.83,69.1352,-9.21811,39.2216,-0.855814,4.06782,50.8227,44.3802,-4.28983,35.7743,-22.5407,-12.4268,0.296958,1.56769,0.203794
4,1,0.00171457,0.00231058,0.00956042,0.0141134,0.0101427,0.00278295,0.000305285,0.186609,105.634,6.13081,16.3556,97.8596,-13.5463,9.03016,88.7128,-26.0569,-2.42865,83.1806,-38.8273,-13.4583,149.794,1.94082,16.2939,172.457,-2.8315,15.1637,192.427,-6.17772,13.9873,149.559,-24.7423,0.875695,176.2,-29.9635,-4.43233,193.689,-35.9508,-10.0312,133.35,-41.221,-8.6324,154.477,-51.531,-10.8942,172.943,-58.6493,-8.78926,110.613,-54.0072,-17.443,126.746,-63.1555,-19.3817,137.239,-76.6242,-24.0588,86.0679,62.1775,-1.14465,115.921,63.5021,1.67406,141.852,68.9705,-9.49469,39.2242,-0.8545,4.07326,50.828,44.3838,-4.29044,35.7748,-22.5395,-12.4267,0.291244,1.56294,0.204319
4,1,0.00181238,0.0022961,0.00971946,0.0148568,0.0105499,0.00283298,0.000312945,0.188575,105.634,6.13016,16.3601,97.8614,-13.5471,9.02997,88.7183,-26.0569,-2.43106,83.1852,-38.8224,-13.4577,149.798,1.94336,16.2886,172.457,-2.82465,15.1607,192.432,-6.16962,13.9722,149.562,-24.7371,0.866399,176.203,-29.9521,-4.43477,193.692,-35.9364,-10.0391,133.352,-41.2119,-8.64818,154.481,-51.5221,-10.9045,172.945,-58.6397,-8.80097,110.616,-53.999,-17.4501,126.751,-63.147,-19.3993,137.245,-76.6141,-24.0723,86.0983,62.1728,-1.18675,116.007,63.469,1.56457,141.868,68.7943,-9.7817,39.2261,-0.853238,4.07881,50.8333,44.3875,-4.29106,35.7752,-22.5384,-12.4266,0.285504,1.55815,0.204841
4,1,0.00191784,0.00228961,0.0099482,0.015678,0.0109818,0.0028758,0.000319659,0.190418,105.634,6.12961,16.3671,97.8622,-13.548,9.03266,88.7234,-26.0568,-2.43197,83.1894,-38.8175,-13.4558,149.801,1.94591,16.2873,172.455,-2.8177,15.162,192.435,-6.16135,13.9619,149.565,-24.7317,0.860834,176.205,-29.9405,-4.43286,193.695,-35.9219,-10.0419,133.354,-41.2027,-8.66059,154.484,-51.513,-10.911,172.946,-58.63,-8.80819,110.619,-53.9908,-17.4547,126.755,-63.1384,-19.4138,137.25,-76.6042,-24.0825,86.1298,62.1679,-1.2291,116.097,63.4328,1.45175,141.879,68.6066,-10.0792,39.2272,-0.852032,4.08445,50.8387,44.3913,-4.29167,35.7756,-22.5374,-12.4265,0.279742,1.55331,0.20536
4,1,0.00203071,0.00229196,0.0102423,0.016572,0.0114383,0.00291095,0.000325385,0.192125,105.632,6.1292,16.3765,97.862,-13.5489,9.03819,88.728,-26.0566,-2.43136,83.1933,-38.8127,-13.4525,149.803,1.94849,16.2899,172.453,-2.81061,15.1676,192.438,-6.15288,13.9564,149.567,-24.7261,0.85901,176.207,-29.9289,-4.4266,193.697,-35.9075,-10.0395,133.356,-41.1934,-8.66961,154.487,-51.5038,-10.9136,172.948,-58.62,-8.81093,110.621,-53.9826,-17.4568,126.761,-63.1298,-19.4253,137.255,-76.5942,-24.0895,86.1623,62.1628,-1.2717,116.191,63.3935,1.33554,141.884,68.4072,-10.3872,39.2276,-0.850885,4.09018,50.8441,44.3951,-4.29228,35.7759,-22.5363,-12.4264,0.273961,1.54841,0.205875
4,1,0.00215068,0.00230393,0.0105965,0.0175332,0.0119189,0.00293807,0.000330091,0.193684,105.629,6.12893,16.3884,97.8608,-13.5497,9.04656,88.7321,-26.0562,-2.42924,83.1968,-38.8079,-13.4477,149.805,1.95113,16.2963,172.449,-2.80338,15.1773,192.44,-6.14419,13.9556,149.568,-24.7202,0.860929,176.207,-29.9172,-4.41601,193.699,-35.8929,-10.032,133.358,-41.1841,-8.67523,154.49,-51.4944,-10.9123,172.949,-58.6098,-8.80918,110.624,-53.9744,-17.4565,126.766,-63.1213,-19.4336,137.261,-76.5843,-24.0933,86.196,62.1574,-1.31453,116.289,63.3508,1.21589,141.883,68.1959,-10.7058,39.2272,-0.8498,4.09599,50.8496,44.3991,-4.29289,35.7763,-22.5353,-12.4263,0.268162,1.54346,0.206385
4,1,0.00227734,0.00232622,0.011005,0.0185547,0.0124223,0.00295697,0.000333761,0.195081,105.625,6.12881,16.4026,97.8587,-13.5505,9.05772,88.7357,-26.0557,-2.42561,83.2,-38.8032,-13.4417,149.805,1.95385,16.3067,172.445,-2.79597,15.1912,192.44,-6.13525,13.9597,149.569,-24.7141,0.866587,176.208,-29.9053,-4.40112,193.701,-35.8782,-10.0193,133.36,-41.1748,-8.67744,154.493,-51.4849,-10.9071,172.95,-58.5993,-8.80297,110.627,-53.9662,-17.4537,126.771,-63.1127,-19.4388,137.267,-76.5744,-24.0939,86.2307,62.1518,-1.35759,116.39,63.3047,1.09273,141.875,67.9726,-11.0348,39.226,-0.848777,4.10185,50.8551,44.4032,-4.29349,35.7765,-22.5344,-12.4262,0.262348,1.53846,0.206888
4,1,0.00241021,0.00235938,0.0114614,0.0196293,0.0129468,0.00296756,0.000336386,0.196305,105.62,6.12887,16.4192,97.8556,-13.5512,9.07165,88.7388,-26.0551,-2.42049,83.2029,-38.7986,-13.4343,149.804,1.95667,16.3209,172.439,-2.78837,15.2093,192.44,-6.12603,13.9685,149.569,-24.7077,0.87597,176.207,-29.8934,-4.38195,193.703,-35.8634,-10.0016,133.362,-41.1654,-8.67627,154.496,-51.4752,-10.8981,172.951,-58.5886,-8.79232,110.629,-53.958,-17.4485,126.777,-63.1041,-19.4409,137.273,-76.5645,-24.0913,86.2665,62.146,-1.40089,116.496,63.2551,0.966027,141.86,67.7372,-11.3744,39.224,-0.847818,4.10775,50.8607,44.4074,-4.29409,35.7767,-22.5335,-12.4261,0.25652,1.53339,0.207385
4,1,0.00254872,0.00240384,0.0119585,0.0207488,0.0134898,0.0029699,0.000337975,0.197341,105.613,6.12912,16.4381,97.8515,-13.5519,9.08829,88.7413,-26.0542,-2.41389,83.2055,-38.7939,-13.4255,149.802,1.95962,16.3389,172.432,-2.78056,15.2314,192.438,-6.11651,13.9819,149.569,-24.701,0.889058,176.206,-29.8812,-4.35855,193.705,-35.8485,-9.97883,133.363,-41.1558,-8.67172,154.499,-51.4653,-10.8853,172.952,-58.5776,-8.77727,110.632,-53.9499,-17.4409,126.783,-63.0955,-19.44,137.279,-76.5546,-24.0855,86.3035,62.1399,-1.44441,116.605,63.202,0.835727,141.838,67.4897,-11.7245,39.2213,-0.846924,4.11368,50.8664,44.4116,-4.29469,35.7769,-22.5327,-12.426,0.250681,1.52826,0.207872
4,1,0.00269222,0.00245989,0.012489,0.0219044,0.0140483,0.00296415,0.000338542,0.198175,105.606,6.12957,16.4592,97.8464,-13.5525,9.1076,88.7433,-26.0532,-2.40581,83.2077,-38.7893,-13.4155,149.799,1.96273,16.3607,172.424,-2.77251,15.2576,192.435,-6.10665,13.9999,149.567,-24.6941,0.905822,176.205,-29.8689,-4.33096,193.706,-35.8334,-9.95107,133.364,-41.1462,-8.66382,154.502,-51.4553,-10.8687,172.952,-58.5663,-8.75787,110.634,-53.9417,-17.4308,126.789,-63.0868,-19.4359,137.285,-76.5447,-24.0766,86.3416,62.1337,-1.48815,116.718,63.1453,0.701793,141.809,67.2299,-12.0849,39.2177,-0.846096,4.11963,50.8722,44.4161,-4.29528,35.777,-22.5319,-12.4259,0.244831,1.52307,0.208351
4,1,0.00283997,0.00252764,0.0130452,0.0230869,0.0146182,0.00295059,0.000338115,0.198795,105.597,6.13025,16.4826,97.8404,-13.5529,9.12952,88.7447,-26.052,-2.39627,83.2096,-38.7847,-13.4041,149.794,1.96601,16.3861,172.415,-2.7642,15.2877,192.432,-6.09643,14.0225,149.566,-24.6868,0.926226,176.203,-29.8563,-4.29925,193.707,-35.8181,-9.91839,133.365,-41.1365,-8.65258,154.504,-51.445,-10.8484,172.953,-58.5546,-8.73417,110.637,-53.9335,-17.4184,126.795,-63.0781,-19.4288,137.291,-76.5347,-24.0645,86.3809,62.1273,-1.53211,116.835,63.0848,0.564192,141.772,66.9578,-12.4557,39.2134,-0.845333,4.12557,50.878,44.4206,-4.29587,35.7771,-22.5312,-12.4258,0.238973,1.51781,0.20882
4,1,0.00299114,0.00260702,0.0136193,0.0242866,0.0151952,0.00292961,0.000336729,0.199186,105.587,6.13116,16.5081,97.8334,-13.5532,9.15398,88.7457,-26.0506,-2.3853,83.2112,-38.7801,-13.3915,149.789,1.9695,16.4152,172.406,-2.75561,15.3216,192.427,-6.08582,14.0495,149.563,-24.6793,0.950227,176.2,-29.8436,-4.26347,193.708,-35.8027,-9.88087,133.366,-41.1267,-8.63806,154.506,-51.4345,-10.8244,172.953,-58.5426,-8.70622,110.639,-53.9253,-17.4036,126.801,-63.0693,-19.4187,137.298,-76.5246,-24.0494,86.4212,62.1206,-1.57629,116.956,63.0205,0.422899,141.726,66.6736,-12.8366,39.2083,-0.844636,4.1315,50.8839,44.4252,-4.29645,35.777,-22.5305,-12.4256,0.233107,1.51248,0.209278
4,1,0.0031448,0.0026978,0.0142033,0.0254932,0.0157741,0.00290166,0.000334428,0.199336,105.576,6.13232,16.5358,97.8255,-13.5534,9.18092,88.746,-26.049,-2.37291,83.2125,-38.7756,-13.3777,149.783,1.97322,16.4479,172.395,-2.74671,15.3593,192.421,-6.07478,14.0809,149.56,-24.6714,0.977777,176.197,-29.8306,-4.22371,193.709,-35.787,-9.83857,133.366,-41.1167,-8.62028,154.509,-51.4239,-10.7968,172.954,-58.5302,-8.6741,110.642,-53.9171,-17.3865,126.808,-63.0604,-19.4055,137.304,-76.5145,-24.0311,86.4628,62.1139,-1.62068,117.08,62.9524,0.277891,141.672,66.377,-13.2276,39.2024,-0.844002,4.13739,50.8898,44.43,-4.29702,35.777,-22.5299,-12.4255,0.227235,1.50707,0.209725
4,1,0.00329998,0.00279954,0.0147894,0.0266966,0.0163494,0.00286728,0.000331262,0.199233,105.564,6.13374,16.5655,97.8166,-13.5534,9.21025,88.7459,-26.0471,-2.35914,83.2134,-38.771,-13.3626,149.775,1.97719,16.484,172.383,-2.73748,15.4007,192.415,-6.0633,14.1166,149.557,-24.6631,1.00882,176.193,-29.8174,-4.18004,193.709,-35.771,-9.79161,133.367,-41.1066,-8.5993,154.511,-51.413,-10.7656,172.954,-58.5174,-8.63789,110.644,-53.9089,-17.3672,126.814,-63.0514,-19.3894,137.311,-76.5043,-24.0099,86.5055,62.1069,-1.66527,117.208,62.8804,0.129155,141.61,66.0683,-13.6284,39.1957,-0.843432,4.14322,50.8959,44.435,-4.29759,35.7768,-22.5293,-12.4254,0.221357,1.50158,0.210159
4,1,0.00345561,0.00291164,0.01537,0.0278863,0.0169148,0.00282706,0.000327285,0.198866,105.551,6.13545,16.5972,97.8068,-13.5531,9.24191,88.7452,-26.045,-2.34401,83.214,-38.7665,-13.3464,149.767,1.98144,16.5235,172.37,-2.7279,15.4457,192.407,-6.05133,14.1565,149.552,-24.6545,1.04329,176.189,-29.8038,-4.13255,193.709,-35.7549,-9.74007,133.367,-41.0964,-8.57516,154.512,-51.4018,-10.7309,172.954,-58.5043,-8.59766,110.647,-53.9006,-17.3456,126.821,-63.0424,-19.3703,137.318,-76.4941,-23.9858,86.5494,62.0998,-1.71007,117.34,62.8044,-0.0233179,141.539,65.7475,-14.039,39.1883,-0.842923,4.149,50.902,44.44,-4.29816,35.7766,-22.5288,-12.4252,0.215474,1.49601,0.210581
4,1,0.00361057,0.0030333,0.0159375,0.0290518,0.017464,0.00278165,0.000322557,0.198228,105.536,6.13746,16.6308,97.7961,-13.5527,9.2758,88.7439,-26.0427,-2.32754,83.2144,-38.7619,-13.329,149.757,1.986,16.5663,172.356,-2.71794,15.4942,192.398,-6.03886,14.2004,149.548,-24.6456,1.08112,176.184,-29.79,-4.08132,193.709,-35.7384,-9.68406,133.367,-41.086,-8.54793,154.514,-51.3904,-10.6928,172.954,-58.4907,-8.55351,110.65,-53.8924,-17.3218,126.828,-63.0332,-19.3484,137.325,-76.4837,-23.9587,86.5944,62.0926,-1.75507,117.475,62.7243,-0.179528,141.458,65.4147,-14.459,39.1801,-0.842473,4.15468,50.9082,44.4452,-4.29872,35.7763,-22.5284,-12.4251,0.209586,1.49036,0.210989
4,1,0.00376367,0.00316355,0.0164851,0.0301829,0.0179902,0.00273169,0.000317139,0.19731,105.521,6.13977,16.6662,97.7845,-13.5521,9.31183,88.7421,-26.0402,-2.30977,83.2144,-38.7574,-13.3105,149.747,1.99089,16.6123,172.341,-2.70759,15.546,192.388,-6.02585,14.2483,149.542,-24.6363,1.12224,176.179,-29.7759,-4.02647,193.709,-35.7216,-9.6237,133.367,-41.0754,-8.51767,154.516,-51.3788,-10.6513,172.954,-58.4767,-8.50553,110.652,-53.884,-17.2959,126.835,-63.0239,-19.3236,137.332,-76.4732,-23.9288,86.6406,62.0853,-1.80025,117.614,62.6403,-0.339471,141.369,65.07,-14.8883,39.1712,-0.842081,4.16027,50.9144,44.4506,-4.29927,35.7759,-22.528,-12.4249,0.203694,1.48463,0.211383
4,1,0.0039137,0.00330127,0.0170059,0.0312696,0.0184866,0.00267787,0.000311096,0.19611,105.504,6.14241,16.7034,97.7721,-13.5511,9.34991,88.7398,-26.0374,-2.29074,83.2141,-38.7528,-13.2909,149.735,1.99613,16.6613,172.325,-2.69683,15.601,192.378,-6.01228,14.3,149.536,-24.6266,1.16656,176.173,-29.7614,-3.96808,193.709,-35.7045,-9.55911,133.367,-41.0646,-8.48445,154.517,-51.3668,-10.6066,172.954,-58.4622,-8.45382,110.655,-53.8757,-17.2679,126.842,-63.0144,-19.296,137.339,-76.4626,-23.8962,86.688,62.0779,-1.84563,117.756,62.5521,-0.503133,141.27,64.7137,-15.3266,39.1615,-0.841744,4.16575,50.9208,44.4561,-4.29982,35.7754,-22.5276,-12.4247,0.197797,1.47881,0.211762
4,1,0.00405942,0.00344516,0.017494,0.0323022,0.0189463,0.00262086,0.000304492,0.194626,105.487,6.14539,16.7424,97.7588,-13.55,9.38995,88.737,-26.0343,-2.27049,83.2136,-38.7483,-13.2702,149.723,2.00174,16.7134,172.308,-2.68562,15.6591,192.366,-5.99812,14.3555,149.529,-24.6165,1.21401,176.166,-29.7466,-3.90629,193.708,-35.6871,-9.49042,133.366,-41.0537,-8.44833,154.519,-51.3546,-10.5586,172.954,-58.4473,-8.3985,110.657,-53.8673,-17.2379,126.85,-63.0049,-19.2657,137.347,-76.4518,-23.8608,86.7365,62.0703,-1.89118,117.901,62.4598,-0.670496,141.161,64.3458,-15.7736,39.1512,-0.841459,4.17109,50.9273,44.4617,-4.30036,35.7748,-22.5274,-12.4246,0.191897,1.47289,0.212127
4,1,0.0041996,0.00359379,0.0179438,0.0332717,0.0193625,0.00256134,0.000297393,0.192858,105.468,6.14871,16.7829,97.7448,-13.5485,9.43183,88.7336,-26.031,-2.24904,83.2127,-38.7437,-13.2486,149.709,2.00776,16.7683,172.29,-2.67395,15.7203,192.354,-5.98335,14.4144,149.522,-24.606,1.26448,176.159,-29.7314,-3.84119,193.707,-35.6693,-9.41776,133.366,-41.0425,-8.4094,154.52,-51.3422,-10.5076,172.954,-58.4319,-8.33966,110.66,-53.8589,-17.2059,126.858,-62.9951,-19.2328,137.355,-76.4409,-23.8228,86.7862,62.0627,-1.93691,118.049,62.3634,-0.841532,141.043,63.9666,-16.2291,39.1401,-0.841224,4.17629,50.9338,44.4675,-4.3009,35.7742,-22.5272,-12.4244,0.185992,1.46688,0.212476
4,1,0.00433299,0.00374563,0.0183505,0.0341695,0.0197287,0.00249995,0.000289864,0.190813,105.449,6.1524,16.8249,97.7299,-13.5467,9.47546,88.7297,-26.0273,-2.22644,83.2116,-38.739,-13.2259,149.695,2.0142,16.8259,172.272,-2.6618,15.7843,192.34,-5.96794,14.4769,149.514,-24.5951,1.31788,176.152,-29.7158,-3.7729,193.706,-35.6511,-9.34128,133.365,-41.0311,-8.36775,154.521,-51.3294,-10.4536,172.954,-58.416,-8.27745,110.663,-53.8504,-17.172,126.865,-62.9852,-19.1973,137.362,-76.4298,-23.7823,86.837,62.055,-1.9828,118.201,62.2628,-1.01621,140.915,63.5764,-16.6926,39.1283,-0.841035,4.18133,50.9404,44.4735,-4.30143,35.7735,-22.527,-12.4242,0.180082,1.46078,0.21281
4,1,0.00445839,0.00389902,0.0187099,0.0349877,0.0200389,0.00243734,0.000281968,0.188499,105.429,6.15646,16.8684,97.7143,-13.5446,9.52073,88.7253,-26.0234,-2.20274,83.2103,-38.7344,-13.2024,149.679,2.02109,16.8862,172.253,-2.64915,15.851,192.326,-5.95187,14.5426,149.505,-24.5838,1.37412,176.144,-29.6999,-3.70156,193.705,-35.6326,-9.26112,133.364,-41.0195,-8.32344,154.522,-51.3163,-10.3967,172.954,-58.3997,-8.21197,110.666,-53.8419,-17.1362,126.873,-62.9751,-19.1592,137.37,-76.4186,-23.7393,86.889,62.0472,-2.02886,118.355,62.158,-1.19449,140.776,63.1753,-17.1639,39.1159,-0.840889,4.1862,50.9472,44.4796,-4.30195,35.7727,-22.527,-12.424,0.174168,1.45458,0.213128
4,1,0.00457468,0.0040522,0.0190184,0.0357193,0.0202874,0.00237409,0.000273771,0.185927,105.407,6.16091,16.9132,97.6979,-13.5421,9.56753,88.7204,-26.0193,-2.17797,83.2087,-38.7297,-13.1779,149.662,2.02845,16.9489,172.232,-2.63597,15.9203,192.311,-5.93512,14.6115,149.496,-24.5721,1.43308,176.136,-29.6835,-3.62729,193.703,-35.6136,-9.17743,133.363,-41.0077,-8.27659,154.523,-51.3029,-10.337,172.953,-58.3828,-8.14335,110.669,-53.8333,-17.0987,126.881,-62.9648,-19.1187,137.378,-76.4071,-23.6938,86.9421,62.0394,-2.07507,118.512,62.049,-1.37632,140.628,62.7638,-17.6425,39.1028,-0.840784,4.19088,50.954,44.4859,-4.30247,35.7718,-22.527,-12.4238,0.168247,1.44828,0.21343
4,1,0.00468077,0.00420339,0.0192733,0.0363581,0.0204693,0.0023108,0.000265335,0.183115,105.385,6.16575,16.9594,97.6808,-13.5393,9.61573,88.715,-26.0148,-2.15219,83.2068,-38.725,-13.1525,149.645,2.03629,17.014,172.211,-2.62226,15.992,192.295,-5.91766,14.6833,149.487,-24.5599,1.49465,176.127,-29.6667,-3.55022,193.702,-35.5943,-9.09038,133.362,-40.9956,-8.22727,154.523,-51.2892,-10.2746,172.953,-58.3654,-8.07173,110.672,-53.8246,-17.0595,126.89,-62.9544,-19.0758,137.386,-76.3955,-23.6461,86.9963,62.0315,-2.12142,118.672,61.9359,-1.56166,140.469,62.342,-18.1281,39.0891,-0.840715,4.19536,50.9609,44.4924,-4.30298,35.7708,-22.527,-12.4235,0.162319,1.44187,0.213716
4,1,0.00477568,0.0043507,0.0194726,0.036899,0.0205805,0.00224799,0.000256724,0.18008,105.362,6.171,17.0066,97.6631,-13.5362,9.66524,88.7092,-26.01,-2.12544,83.2048,-38.7203,-13.1263,149.627,2.04464,17.0813,172.189,-2.608,16.066,192.278,-5.89948,14.758,149.477,-24.5473,1.55873,176.118,-29.6494,-3.4705,193.7,-35.5745,-9.00012,133.361,-40.9833,-8.17559,154.524,-51.2752,-10.2097,172.953,-58.3474,-7.99724,110.675,-53.8159,-17.0186,126.898,-62.9437,-19.0307,137.395,-76.3837,-23.5961,87.0516,62.0236,-2.16791,118.834,61.8186,-1.75044,140.3,61.9104,-18.6203,39.0748,-0.84068,4.19962,50.9679,44.499,-4.30349,35.7697,-22.5271,-12.4233,0.156384,1.43537,0.213986
4,1,0.00485855,0.00449228,0.0196151,0.0373376,0.0206177,0.00218619,0.000248002,0.176846,105.339,6.17667,17.055,97.6448,-13.5326,9.71593,88.7029,-26.0049,-2.09778,83.2025,-38.7155,-13.0994,149.607,2.05352,17.1507,172.167,-2.59316,16.1421,192.26,-5.88055,14.8354,149.466,-24.5343,1.62519,176.109,-29.6318,-3.38825,193.698,-35.5542,-8.90682,133.359,-40.9707,-8.12166,154.524,-51.2609,-10.1423,172.953,-58.329,-7.92002,110.678,-53.8071,-16.9762,126.907,-62.9328,-18.9833,137.403,-76.3717,-23.5441,87.108,62.0157,-2.21453,118.998,61.6972,-1.9426,140.121,61.4693,-19.1186,39.0599,-0.840676,4.20367,50.9751,44.5058,-4.30399,35.7685,-22.5273,-12.423,0.15044,1.42876,0.21424
4,1,0.00492865,0.00462621,0.0197003,0.0376707,0.0205784,0.00212586,0.00023923,0.17344,105.314,6.18275,17.1044,97.6258,-13.5286,9.76769,88.6961,-25.9996,-2.06924,83.2,-38.7107,-13.0717,149.587,2.06294,17.2221,172.144,-2.57774,16.2202,192.242,-5.86087,14.9153,149.455,-24.5208,1.69391,176.099,-29.6136,-3.30362,193.696,-35.5335,-8.81065,133.358,-40.9578,-8.06556,154.524,-51.2462,-10.0725,172.953,-58.3099,-7.84022,110.681,-53.7983,-16.9322,126.915,-62.9217,-18.9338,137.412,-76.3594,-23.4899,87.1655,62.0078,-2.26128,119.165,61.5716,-2.13807,139.931,61.0191,-19.6227,39.0444,-0.840698,4.20748,50.9823,44.5127,-4.30449,35.7672,-22.5276,-12.4228,0.144486,1.42205,0.214478
4,1,0.00498536,0.00475063,0.0197282,0.0378961,0.0204612,0.00206746,0.000230472,0.169891,105.289,6.18927,17.1547,97.6063,-13.5243,9.82039,88.689,-25.9939,-2.03988,83.1974,-38.7058,-13.0433,149.566,2.07292,17.2952,172.12,-2.56171,16.3002,192.223,-5.8404,14.9976,149.443,-24.5069,1.76476,176.089,-29.595,-3.21676,193.693,-35.5123,-8.71179,133.356,-40.9447,-8.00741,154.525,-51.2312,-10.0006,172.953,-58.2904,-7.75798,110.685,-53.7894,-16.8869,126.924,-62.9104,-18.8823,137.42,-76.347,-23.4339,87.2241,61.9999,-2.30814,119.333,61.4419,-2.33676,139.731,60.5603,-20.1319,39.0284,-0.840744,4.21104,50.9896,44.5199,-4.30498,35.7659,-22.5279,-12.4225,0.13852,1.41523,0.2147
4,1,0.00502825,0.00486371,0.0196999,0.0380128,0.0202658,0.00201141,0.000221791,0.16623,105.263,6.19623,17.2058,97.5863,-13.5195,9.87393,88.6814,-25.9879,-2.00977,83.1945,-38.7009,-13.0142,149.544,2.08348,17.3699,172.095,-2.54506,16.3818,192.204,-5.81915,15.082,149.431,-24.4924,1.83762,176.078,-29.5759,-3.12782,193.691,-35.4906,-8.61041,133.355,-40.9313,-7.94733,154.524,-51.2159,-9.92653,172.953,-58.2702,-7.67346,110.688,-53.7804,-16.8402,126.933,-62.8988,-18.8289,137.429,-76.3343,-23.376,87.2836,61.9919,-2.3551,119.503,61.3082,-2.53861,139.521,60.0931,-20.6459,39.012,-0.840812,4.21436,50.9971,44.5272,-4.30546,35.7644,-22.5283,-12.4222,0.132541,1.40831,0.214906
4,1,0.00505703,0.00496365,0.019617,0.0380208,0.019993,0.00195809,0.00021325,0.162493,105.237,6.20362,17.2576,97.5658,-13.5142,9.92817,88.6734,-25.9817,-1.97894,83.1915,-38.696,-12.9846,149.522,2.09462,17.4462,172.07,-2.52779,16.465,192.184,-5.7971,15.1685,149.418,-24.4776,1.91235,176.067,-29.5563,-3.03695,193.689,-35.4684,-8.50669,133.353,-40.9176,-7.88542,154.524,-51.2002,-9.85051,172.953,-58.2496,-7.5868,110.692,-53.7713,-16.7923,126.942,-62.887,-18.7737,137.438,-76.3214,-23.3164,87.3442,61.984,-2.40216,119.675,61.1704,-2.74351,139.301,59.6182,-21.1641,38.995,-0.840897,4.21741,51.0046,44.5347,-4.30594,35.7629,-22.5287,-12.422,0.126547,1.40127,0.215098
4,1,0.00507158,0.00504875,0.0194815,0.0379211,0.0196444,0.00190788,0.000204912,0.158716,105.21,6.21147,17.31,97.5449,-13.5085,9.98299,88.665,-25.9751,-1.94746,83.1884,-38.691,-12.9544,149.499,2.10638,17.5238,172.045,-2.50988,16.5495,192.163,-5.77423,15.2569,149.405,-24.4622,1.98882,176.056,-29.5362,-2.9443,193.686,-35.4457,-8.40083,133.351,-40.9036,-7.82179,154.524,-51.1842,-9.77266,172.953,-58.2283,-7.49817,110.695,-53.7622,-16.7432,126.951,-62.875,-18.7167,137.447,-76.3082,-23.2551,87.4058,61.9761,-2.44932,119.848,61.0286,-2.95139,139.07,59.1359,-21.6861,38.9776,-0.840998,4.2202,51.0122,44.5423,-4.30641,35.7612,-22.5292,-12.4217,0.120536,1.39413,0.215274
4,1,0.00507194,0.00511742,0.0192963,0.037716,0.019223,0.00186109,0.000196841,0.154937,105.182,6.21976,17.363,97.5236,-13.5024,10.0383,88.6562,-25.9682,-1.91539,83.1851,-38.6859,-12.9236,149.475,2.11875,17.6026,172.019,-2.49132,16.6352,192.142,-5.75054,15.347,149.392,-24.4464,2.06689,176.044,-29.5155,-2.85003,193.683,-35.4225,-8.293,133.349,-40.8893,-7.75657,154.524,-51.1678,-9.69309,172.953,-58.2065,-7.40772,110.699,-53.753,-16.693,126.96,-62.8627,-18.6582,137.457,-76.2948,-23.1923,87.4683,61.9682,-2.49655,120.022,60.883,-3.16214,138.829,58.6467,-22.2114,38.9598,-0.841111,4.22271,51.02,44.5501,-4.30688,35.7595,-22.5298,-12.4214,0.114505,1.38688,0.215437
4,1,0.00505834,0.00516815,0.0190647,0.0374085,0.0187324,0.00181805,0.0001891,0.151194,105.154,6.22852,17.4164,97.5019,-13.4958,10.0939,88.6471,-25.961,-1.88278,83.1817,-38.6809,-12.8925,149.45,2.13175,17.6824,171.992,-2.4721,16.7219,192.12,-5.72601,15.4385,149.378,-24.4301,2.14641,176.033,-29.4944,-2.7543,193.68,-35.3987,-8.18339,133.348,-40.8748,-7.68987,154.523,-51.1511,-9.61196,172.953,-58.1841,-7.31561,110.703,-53.7436,-16.6418,126.97,-62.8501,-18.5981,137.466,-76.2811,-23.1281,87.5318,61.9603,-2.54387,120.197,60.7334,-3.37567,138.578,58.1511,-22.7393,38.9417,-0.841235,4.22495,51.0278,44.5581,-4.30735,35.7577,-22.5304,-12.421,0.108453,1.37953,0.215585
4,1,0.00503113,0.0051996,0.0187904,0.0370031,0.0181775,0.00177904,0.000181752,0.147526,105.126,6.23772,17.4701,97.4799,-13.4887,10.1498,88.6377,-25.9536,-1.84969,83.1782,-38.6757,-12.8608,149.425,2.14538,17.7632,171.965,-2.45221,16.8095,192.097,-5.70064,15.5314,149.364,-24.4134,2.22724,176.021,-29.4728,-2.65726,193.677,-35.3745,-8.0722,133.346,-40.8599,-7.62183,154.522,-51.134,-9.52939,172.953,-58.1612,-7.22201,110.707,-53.7342,-16.5898,126.979,-62.8373,-18.5366,137.476,-76.2672,-23.0627,87.5961,61.9524,-2.59125,120.372,60.5801,-3.59187,138.318,57.6498,-23.2694,38.9231,-0.841367,4.2269,51.0358,44.5663,-4.30781,35.7558,-22.5311,-12.4207,0.102377,1.37207,0.215721
4,1,0.00499084,0.00521059,0.0184776,0.0365049,0.0175637,0.00174429,0.000174858,0.14397,105.097,6.24739,17.5241,97.4577,-13.4811,10.2058,88.628,-25.9458,-1.81618,83.1746,-38.6705,-12.8289,149.399,2.15966,17.8447,171.938,-2.43165,16.8978,192.075,-5.67443,15.6255,149.349,-24.3962,2.30924,176.009,-29.4506,-2.55909,193.674,-35.3497,-7.95963,133.344,-40.8447,-7.55255,154.522,-51.1166,-9.44553,172.954,-58.1376,-7.12707,110.711,-53.7247,-16.5369,126.989,-62.8242,-18.4738,137.486,-76.253,-22.996,87.6614,61.9445,-2.6387,120.548,60.423,-3.81063,138.048,57.1431,-23.8011,38.9043,-0.841505,4.22858,51.0439,44.5746,-4.30827,35.7539,-22.5319,-12.4204,0.0962738,1.3645,0.215844
4,1,0.00493816,0.00520008,0.0181307,0.0359199,0.0168975,0.00171401,0.000168479,0.140563,105.068,6.25751,17.5783,97.4353,-13.4731,10.2618,88.618,-25.9377,-1.78231,83.1709,-38.6653,-12.7966,149.373,2.1746,17.9267,171.91,-2.41041,16.9867,192.052,-5.64738,15.7206,149.334,-24.3784,2.39225,175.996,-29.4279,-2.45995,193.671,-35.3243,-7.84586,133.342,-40.8291,-7.48216,154.521,-51.0987,-9.36052,172.954,-58.1136,-7.03098,110.716,-53.7152,-16.4833,126.999,-62.8109,-18.4099,137.495,-76.2386,-22.9283,87.7275,61.9367,-2.6862,120.725,60.2623,-4.03185,137.768,56.6316,-24.3339,38.8852,-0.841647,4.22997,51.052,44.5831,-4.30872,35.7518,-22.5327,-12.42,0.090141,1.35682,0.215956
4,1,0.00487387,0.00516727,0.0177545,0.0352553,0.0161857,0.00168839,0.000162674,0.13734,105.038,6.2681,17.6325,97.4126,-13.4645,10.3176,88.6078,-25.9294,-1.74814,83.1672,-38.66,-12.764,149.346,2.19019,18.0092,171.882,-2.38849,17.076,192.028,-5.61947,15.8165,149.319,-24.3603,2.47613,175.984,-29.4047,-2.35999,193.668,-35.2984,-7.7311,133.34,-40.8133,-7.4108,154.52,-51.0806,-9.2745,172.955,-58.0889,-6.93389,110.72,-53.7055,-16.429,127.008,-62.7973,-18.3449,137.505,-76.2239,-22.8597,87.7944,61.9289,-2.73375,120.901,60.0981,-4.25541,137.479,56.1158,-24.8672,38.8658,-0.841793,4.23107,51.0603,44.5918,-4.30917,35.7497,-22.5336,-12.4197,0.0839756,1.34903,0.216056
4,1,0.00479889,0.00511155,0.0173539,0.0345187,0.0154359,0.00166754,0.000157498,0.134332,105.009,6.27913,17.6867,97.3899,-13.4555,10.3733,88.5973,-25.9207,-1.71374,83.1634,-38.6546,-12.7312,149.319,2.20645,18.092,171.854,-2.36588,17.1655,192.005,-5.59071,15.9131,149.304,-24.3416,2.56073,175.971,-29.3809,-2.2594,193.665,-35.2719,-7.61555,133.338,-40.7972,-7.33858,154.519,-51.062,-9.18762,172.956,-58.0637,-6.83598,110.725,-53.6957,-16.3743,127.018,-62.7834,-18.279,137.516,-76.2089,-22.7903,87.8621,61.9211,-2.78135,121.077,59.9304,-4.4812,137.18,55.5964,-25.4005,38.8462,-0.84194,4.23188,51.0687,44.6006,-4.30962,35.7475,-22.5345,-12.4193,0.0777743,1.34115,0.216147
4,1,0.00471425,0.00503256,0.0169338,0.0337185,0.014656,0.00165154,0.000153004,0.131568,104.979,6.29063,17.7407,97.3671,-13.446,10.4286,88.5865,-25.9118,-1.67916,83.1597,-38.6492,-12.6983,149.291,2.22338,18.1749,171.825,-2.34259,17.2551,191.981,-5.56111,16.0101,149.288,-24.3224,2.64588,175.959,-29.3566,-2.15833,193.661,-35.2449,-7.4994,133.336,-40.7807,-7.26565,154.518,-51.0432,-9.10002,172.957,-58.0379,-6.73742,110.73,-53.6858,-16.3191,127.028,-62.7692,-18.2122,137.526,-76.1937,-22.7201,87.9306,61.9133,-2.829,121.253,59.7592,-4.70911,136.873,55.0739,-25.9333,38.8265,-0.842089,4.23242,51.0772,44.6096,-4.31006,35.7453,-22.5355,-12.419,0.0715339,1.33315,0.216229
4,1,0.00462106,0.00493019,0.0164994,0.0328639,0.0138541,0.00164043,0.000149242,0.129071,104.949,6.30257,17.7946,97.3442,-13.436,10.4834,88.5756,-25.9026,-1.64447,83.1559,-38.6437,-12.6653,149.263,2.24098,18.2577,171.797,-2.3186,17.3445,191.957,-5.53065,16.1074,149.272,-24.3028,2.73144,175.946,-29.3317,-2.05695,193.658,-35.2173,-7.38285,133.334,-40.7639,-7.19212,154.516,-51.0239,-9.01185,172.958,-58.0116,-6.63838,110.735,-53.6758,-16.2635,127.039,-62.7547,-18.1448,137.536,-76.1781,-22.6494,87.9997,61.9055,-2.87668,121.428,59.5849,-4.93901,136.558,54.5488,-26.4649,38.8066,-0.842237,4.23267,51.0858,44.6187,-4.3105,35.7429,-22.5365,-12.4186,0.0652509,1.32506,0.216302
4,1,0.00452048,0.0048046,0.0160556,0.0319643,0.0130384,0.00163417,0.000146256,0.126861,104.918,6.31496,17.8482,97.3214,-13.4255,10.5377,88.5645,-25.8932,-1.60974,83.1521,-38.6381,-12.6322,149.235,2.25925,18.3404,171.768,-2.29393,17.4337,191.933,-5.49935,16.2048,149.256,-24.2827,2.81725,175.933,-29.3063,-1.95544,193.655,-35.1891,-7.26612,133.332,-40.7467,-7.11813,154.515,-51.0043,-8.92326,172.959,-57.9847,-6.53904,110.74,-53.6657,-16.2077,127.049,-62.74,-18.0767,137.547,-76.1623,-22.5783,88.0695,61.8978,-2.9244,121.602,59.4073,-5.17079,136.234,54.0218,-26.9948,38.7866,-0.842385,4.23265,51.0945,44.628,-4.31095,35.7406,-22.5376,-12.4182,0.0589217,1.31686,0.216369
4,1,0.00441374,0.00465624,0.0156072,0.0310298,0.0122172,0.00163267,0.000144086,0.124953,104.888,6.32779,17.9014,97.2986,-13.4146,10.5913,88.5533,-25.8835,-1.57502,83.1483,-38.6325,-12.5991,149.206,2.27818,18.4227,171.739,-2.26857,17.5225,191.908,-5.46722,16.3021,149.24,-24.2621,2.90315,175.92,-29.2804,-1.85396,193.652,-35.1604,-7.14939,133.33,-40.7293,-7.04382,154.514,-50.9843,-8.83441,172.96,-57.9573,-6.43956,110.745,-53.6555,-16.1518,127.059,-62.7249,-18.0083,137.558,-76.1462,-22.5069,88.14,61.89,-2.97216,121.775,59.2267,-5.40433,135.902,53.4933,-27.5225,38.7665,-0.842533,4.23235,51.1034,44.6374,-4.31139,35.7381,-22.5388,-12.4178,0.0525426,1.30856,0.21643
4,1,0.00430209,0.00448588,0.0151591,0.0300704,0.0113987,0.00163577,0.000142764,0.123356,104.858,6.34106,17.9541,97.2759,-13.4031,10.6441,88.542,-25.8735,-1.54038,83.1446,-38.6268,-12.5661,149.177,2.29779,18.5046,171.711,-2.24253,17.6107,191.884,-5.43425,16.3992,149.224,-24.2411,2.98899,175.907,-29.2539,-1.75268,193.649,-35.1311,-7.03288,133.329,-40.7115,-6.9693,154.512,-50.9639,-8.74544,172.962,-57.9293,-6.34012,110.751,-53.6452,-16.0958,127.07,-62.7096,-17.9395,137.569,-76.1298,-22.4353,88.2111,61.8822,-3.01995,121.947,59.0431,-5.63951,135.562,52.9641,-28.0475,38.7463,-0.842681,4.23178,51.1123,44.647,-4.31183,35.7356,-22.54,-12.4175,0.0461099,1.30016,0.216487
4,1,0.0041868,0.00429459,0.0147155,0.0290965,0.0105908,0.00164327,0.000142317,0.122072,104.828,6.35476,18.0063,97.2534,-13.3912,10.696,88.5305,-25.8633,-1.50588,83.1409,-38.6211,-12.5332,149.148,2.31807,18.5858,171.682,-2.2158,17.6982,191.86,-5.40046,16.4959,149.208,-24.2195,3.0746,175.894,-29.2269,-1.65178,193.645,-35.1012,-6.91679,133.327,-40.6934,-6.89473,154.511,-50.9431,-8.65651,172.964,-57.9009,-6.2409,110.756,-53.6347,-16.0399,127.08,-62.694,-17.8705,137.58,-76.1131,-22.3637,88.2827,61.8744,-3.06777,122.117,58.8567,-5.87621,135.215,52.4346,-28.5692,38.7262,-0.842828,4.23096,51.1213,44.6568,-4.31227,35.7331,-22.5412,-12.4171,0.0396195,1.29166,0.216539
4,1,0.00406913,0.00408378,0.0142807,0.0281185,0.00980087,0.00165487,0.000142766,0.121099,104.798,6.36888,18.0578,97.2311,-13.3788,10.747,88.519,-25.8529,-1.47159,83.1373,-38.6153,-12.5005,149.119,2.33901,18.6662,171.653,-2.18841,17.7848,191.836,-5.36585,16.592,149.192,-24.1975,3.15983,175.882,-29.1994,-1.55142,193.642,-35.0707,-6.80131,133.325,-40.675,-6.82022,154.509,-50.922,-8.56778,172.966,-57.8718,-6.14207,110.762,-53.6242,-15.9841,127.091,-62.678,-17.8015,137.591,-76.0962,-22.2922,88.3549,61.8665,-3.11563,122.285,58.6676,-6.11431,134.86,51.9054,-29.0871,38.7061,-0.842976,4.22987,51.1305,44.6667,-4.31271,35.7305,-22.5425,-12.4167,0.0330675,1.28306,0.21659
4,1,0.00395032,0.00385522,0.0138584,0.0271465,0.0090361,0.00167024,0.000144124,0.120429,104.768,6.38341,18.1087,97.209,-13.3659,10.797,88.5074,-25.8423,-1.43757,83.1337,-38.6094,-12.468,149.09,2.3606,18.7457,171.625,-2.16034,17.8703,191.811,-5.33044,16.6874,149.175,-24.175,3.24453,175.869,-29.1713,-1.45177,193.639,-35.0396,-6.68664,133.324,-40.6562,-6.74591,154.508,-50.9005,-8.47939,172.968,-57.8423,-6.0438,110.768,-53.6135,-15.9286,127.102,-62.6618,-17.7326,137.603,-76.0789,-22.221,88.4275,61.8587,-3.16352,122.451,58.4758,-6.35369,134.499,51.3771,-29.6007,38.686,-0.843125,4.22855,51.1397,44.6767,-4.31315,35.7278,-22.5438,-12.4163,0.0264499,1.27437,0.216639
4,1,0.00383156,0.00361101,0.013452,0.0261906,0.00830296,0.00168898,0.000146395,0.120046,104.738,6.39835,18.1587,97.1872,-13.3526,10.8458,88.4958,-25.8314,-1.40389,83.1303,-38.6034,-12.4358,149.061,2.38285,18.8242,171.597,-2.13161,17.9546,191.787,-5.29424,16.7818,149.159,-24.1521,3.32853,175.856,-29.1426,-1.35301,193.636,-35.008,-6.573,133.323,-40.6372,-6.67192,154.506,-50.8787,-8.3915,172.97,-57.8123,-5.94627,110.774,-53.6027,-15.8734,127.113,-62.6453,-17.6638,137.615,-76.0613,-22.1501,88.5006,61.8507,-3.21145,122.615,58.2817,-6.59423,134.131,50.8503,-30.1096,38.6661,-0.843275,4.22698,51.1491,44.6868,-4.31359,35.7252,-22.5452,-12.4159,0.0197625,1.26559,0.216689
4,1,0.003714,0.00335361,0.0130647,0.0252603,0.00760732,0.00171064,0.000149575,0.119933,104.708,6.41369,18.2079,97.1658,-13.3388,10.8933,88.4842,-25.8203,-1.3706,83.127,-38.5974,-12.404,149.032,2.40574,18.9014,171.569,-2.10224,18.0376,191.764,-5.25725,16.8751,149.143,-24.1287,3.41168,175.844,-29.1135,-1.25529,193.634,-34.9758,-6.46056,133.322,-40.6177,-6.59841,154.505,-50.8565,-8.30426,172.973,-57.7818,-5.84965,110.78,-53.5917,-15.8187,127.124,-62.6285,-17.5954,137.626,-76.0435,-22.0797,88.5741,61.8427,-3.25942,122.776,58.0852,-6.83582,133.758,50.3255,-30.6132,38.6463,-0.843429,4.22519,51.1586,44.6971,-4.31404,35.7225,-22.5466,-12.4155,0.0130013,1.25672,0.21674
4,1,0.00359871,0.00308581,0.0126988,0.0243645,0.00695437,0.00173472,0.000153655,0.120064,104.679,6.42941,18.2561,97.1447,-13.3245,10.9395,88.4726,-25.8091,-1.33777,83.1238,-38.5912,-12.3726,149.003,2.42928,18.9773,171.541,-2.07221,18.119,191.74,-5.2195,16.9671,149.127,-24.1048,3.49383,175.832,-29.0838,-1.15879,193.631,-34.943,-6.34954,133.321,-40.598,-6.52548,154.503,-50.8338,-8.21784,172.976,-57.7507,-5.7541,110.787,-53.5806,-15.7646,127.135,-62.6113,-17.5274,137.638,-76.0253,-22.0099,88.6479,61.8346,-3.30743,122.935,57.8865,-7.07834,133.378,49.8032,-31.1111,38.6266,-0.843586,4.22317,51.1681,44.7075,-4.31449,35.7197,-22.548,-12.4151,0.00616204,1.24775,0.216793
4,1,0.00348666,0.00281076,0.0123567,0.0235118,0.00634854,0.0017607,0.000158615,0.120411,104.65,6.44551,18.3033,97.1241,-13.3099,10.9843,88.4611,-25.7976,-1.30547,83.1208,-38.585,-12.3416,148.974,2.45344,19.0517,171.513,-2.04155,18.1989,191.717,-5.18099,17.0577,149.111,-24.0804,3.57483,175.82,-29.0535,-1.06366,193.628,-34.9096,-6.24012,133.32,-40.578,-6.45327,154.502,-50.8109,-8.13237,172.979,-57.7192,-5.65979,110.793,-53.5693,-15.7111,127.146,-62.5939,-17.46,137.651,-76.0068,-21.941,88.722,61.8265,-3.35548,123.091,57.6858,-7.32167,132.994,49.2841,-31.6028,38.6072,-0.843749,4.22095,51.1778,44.718,-4.31494,35.717,-22.5495,-12.4147,-0.000759357,1.2387,0.216851
4,1,0.00337876,0.00253192,0.01204,0.0227098,0.00579348,0.00178803,0.000164428,0.120941,104.622,6.46197,18.3494,97.1039,-13.2948,11.0277,88.4496,-25.786,-1.27374,83.1179,-38.5787,-12.3112,148.945,2.47821,19.1246,171.486,-2.01027,18.2769,191.694,-5.14174,17.1467,149.095,-24.0556,3.65452,175.808,-29.0228,-0.970074,193.626,-34.8757,-6.13249,133.319,-40.5576,-6.38192,154.5,-50.7875,-8.04802,172.982,-57.6872,-5.5669,110.8,-53.5579,-15.6584,127.157,-62.5762,-17.3933,137.663,-75.988,-21.8729,88.7964,61.8182,-3.40359,123.243,57.4831,-7.5657,132.604,48.7686,-32.088,38.5879,-0.843919,4.21853,51.1876,44.7287,-4.31539,35.7142,-22.551,-12.4143,-0.00776702,1.22956,0.216914
4,1,0.00327578,0.00225307,0.0117499,0.0219652,0.00529206,0.00181615,0.00017106,0.12162,104.594,6.47879,18.3944,97.0842,-13.2793,11.0695,88.4382,-25.7742,-1.24266,83.1152,-38.5723,-12.2814,148.917,2.5036,19.1956,171.46,-1.97838,18.353,191.671,-5.10177,17.2339,149.079,-24.0304,3.73275,175.796,-28.9915,-0.87819,193.624,-34.8411,-6.02684,133.319,-40.5369,-6.31153,154.499,-50.7638,-7.96493,172.986,-57.6548,-5.47559,110.807,-53.5464,-15.6066,127.169,-62.5582,-17.3275,137.676,-75.9689,-21.8059,88.871,61.8098,-3.45176,123.393,57.2787,-7.81031,132.21,48.2572,-32.5662,38.569,-0.844096,4.21593,51.1974,44.7394,-4.31586,35.7114,-22.5525,-12.4139,-0.014865,1.22033,0.216984
4,1,0.00317838,0.00197827,0.0114876,0.0212838,0.00484632,0.00184448,0.000178471,0.122411,104.566,6.49596,18.4381,97.065,-13.2634,11.1097,88.427,-25.7623,-1.21229,83.1126,-38.5659,-12.2523,148.889,2.52958,19.2648,171.433,-1.94589,18.427,191.649,-5.0611,17.3192,149.064,-24.0046,3.80938,175.785,-28.9597,-0.788164,193.622,-34.806,-5.92336,133.318,-40.5159,-6.24224,154.498,-50.7397,-7.88325,172.99,-57.6219,-5.38601,110.814,-53.5347,-15.5557,127.18,-62.5398,-17.2626,137.688,-75.9495,-21.7401,88.9458,61.8013,-3.49998,123.539,57.0727,-8.0554,131.812,47.7505,-33.037,38.5503,-0.844283,4.21315,51.2074,44.7503,-4.31632,35.7086,-22.5541,-12.4135,-0.0220573,1.21102,0.217061
4,1,0.00308711,0.0017118,0.0112534,0.0206706,0.00445754,0.0018725,0.000186612,0.123277,104.539,6.51345,18.4805,97.0464,-13.2471,11.1482,88.4158,-25.7502,-1.18267,83.1103,-38.5593,-12.2238,148.862,2.55614,19.3321,171.408,-1.91282,18.4989,191.627,-5.01973,17.4024,149.049,-23.9785,3.88427,175.774,-28.9274,-0.700152,193.62,-34.7703,-5.82223,133.318,-40.4946,-6.17418,154.496,-50.7152,-7.80313,172.994,-57.5886,-5.29832,110.822,-53.5228,-15.5059,127.192,-62.5212,-17.1989,137.701,-75.9298,-21.6756,89.0207,61.7927,-3.54828,123.681,56.8652,-8.30085,131.41,47.2489,-33.5001,38.5319,-0.844482,4.2102,51.2175,44.7613,-4.31679,35.7059,-22.5557,-12.4132,-0.029348,1.20163,0.217148
4,1,0.00300237,0.00145821,0.0110477,0.0201292,0.00412621,0.00189968,0.000195431,0.124182,104.512,6.53126,18.5216,97.0284,-13.2305,11.185,88.4049,-25.738,-1.15387,83.1082,-38.5526,-12.1962,148.834,2.58328,19.3972,171.383,-1.87917,18.5684,191.606,-4.9777,17.4834,149.034,-23.9519,3.95728,175.763,-28.8946,-0.614305,193.618,-34.7341,-5.72362,133.318,-40.4729,-6.10745,154.495,-50.6903,-7.72472,172.999,-57.5548,-5.21269,110.829,-53.5107,-15.4572,127.204,-62.5022,-17.1363,137.715,-75.9097,-21.6125,89.0957,61.7838,-3.59665,123.819,56.6563,-8.54656,131.005,46.7529,-33.9551,38.5139,-0.844693,4.20711,51.2277,44.7723,-4.31727,35.7031,-22.5573,-12.4128,-0.0367407,1.19216,0.217244
4,1,0.00292446,0.00122216,0.0108706,0.0196625,0.00385209,0.00192554,0.000204869,0.12509,104.486,6.54938,18.5613,97.0111,-13.2135,11.22,88.3941,-25.7257,-1.12595,83.1062,-38.5458,-12.1693,148.808,2.61097,19.4601,171.358,-1.84497,18.6354,191.585,-4.93501,17.562,149.019,-23.9248,4.02827,175.753,-28.8613,-0.530771,193.617,-34.6972,-5.62771,133.319,-40.451,-6.04218,154.494,-50.6651,-7.64815,173.004,-57.5207,-5.12926,110.837,-53.4985,-15.4098,127.216,-62.483,-17.0751,137.728,-75.8893,-21.551,89.1707,61.7748,-3.6451,123.954,56.4463,-8.79242,130.597,46.2629,-34.4017,38.4963,-0.844918,4.20387,51.2379,44.7835,-4.31776,35.7003,-22.5589,-12.4124,-0.0442393,1.18261,0.217353
4,1,0.00285352,0.00100849,0.0107218,0.0192719,0.00363426,0.00194968,0.000214865,0.125968,104.461,6.56778,18.5995,96.9944,-13.1962,11.2532,88.3835,-25.7133,-1.09896,83.1046,-38.5389,-12.1434,148.781,2.6392,19.5207,171.334,-1.81022,18.6999,191.565,-4.89169,17.6381,149.005,-23.8974,4.09712,175.743,-28.8275,-0.449694,193.615,-34.6598,-5.53466,133.319,-40.4287,-5.97848,154.493,-50.6394,-7.57357,173.009,-57.4861,-5.04818,110.844,-53.486,-15.3637,127.228,-62.4634,-17.0153,137.742,-75.8686,-21.4911,89.2458,61.7656,-3.69365,124.084,56.2353,-9.03833,130.186,45.7795,-34.8396,38.4791,-0.845159,4.20051,51.2483,44.7947,-4.31825,35.6975,-22.5605,-12.412,-0.0518474,1.17299,0.217474
4,1,0.00278957,0.000822058,0.010601,0.0189581,0.00347114,0.00197173,0.000225352,0.126787,104.436,6.58647,18.6362,96.9784,-13.1785,11.2844,88.3732,-25.7008,-1.07295,83.1031,-38.5319,-12.1184,148.756,2.66797,19.5789,171.311,-1.77495,18.7616,191.546,-4.84775,17.7115,148.991,-23.8694,4.16368,175.733,-28.7932,-0.371216,193.614,-34.6218,-5.44465,133.32,-40.4061,-5.91646,154.493,-50.6134,-7.50111,173.014,-57.4511,-4.9696,110.852,-53.4734,-15.3191,127.24,-62.4435,-16.9571,137.755,-75.8476,-21.4331,89.3208,61.7562,-3.74229,124.21,56.0233,-9.28418,129.773,45.3029,-35.2686,38.4623,-0.845416,4.19703,51.2588,44.806,-4.31876,35.6948,-22.5621,-12.4117,-0.0595684,1.16329,0.217608
4,1,0.0027325,0.000667775,0.0105078,0.0187205,0.00336062,0.00199142,0.000236263,0.127519,104.412,6.60543,18.6713,96.9632,-13.1605,11.3138,88.3631,-25.6881,-1.04798,83.102,-38.5248,-12.0944,148.731,2.69724,19.6346,171.288,-1.73917,18.8206,191.527,-4.80322,17.7821,148.978,-23.8411,4.22785,175.724,-28.7584,-0.295472,193.614,-34.5833,-5.35781,133.321,-40.3832,-5.85623,154.492,-50.587,-7.43092,173.02,-57.4157,-4.89365,110.86,-53.4606,-15.276,127.252,-62.4233,-16.9006,137.769,-75.8262,-21.3771,89.3956,61.7466,-3.79104,124.332,55.8107,-9.52987,129.359,44.8337,-35.6884,38.4459,-0.845692,4.19345,51.2694,44.8174,-4.31927,35.6921,-22.5637,-12.4113,-0.0674056,1.15352,0.217758
4,1,0.00268209,0.000550486,0.0104417,0.0185578,0.00330005,0.00200858,0.000247525,0.128144,104.388,6.62464,18.7048,96.9487,-13.1423,11.3412,88.3533,-25.6754,-1.02409,83.101,-38.5175,-12.0714,148.706,2.72701,19.6876,171.266,-1.7029,18.8766,191.509,-4.75811,17.8498,148.965,-23.8124,4.2895,175.716,-28.7231,-0.222594,193.613,-34.5441,-5.27432,133.322,-40.3601,-5.79789,154.492,-50.5603,-7.36311,173.026,-57.38,-4.82047,110.869,-53.4475,-15.2345,127.265,-62.4028,-16.8459,137.784,-75.8045,-21.323,89.4704,61.7368,-3.8399,124.449,55.5974,-9.77531,128.944,44.3721,-36.0987,38.43,-0.845987,4.18978,51.28,44.8289,-4.31979,35.6893,-22.5654,-12.4109,-0.0753622,1.14368,0.217923
4,1,0.00263801,0.000474929,0.0104022,0.0184677,0.00328636,0.00202311,0.000259067,0.128645,104.366,6.64409,18.7367,96.935,-13.1238,11.3666,88.3437,-25.6627,-1.00134,83.1004,-38.5101,-12.0496,148.682,2.75726,19.738,171.245,-1.66615,18.9296,191.491,-4.71245,17.9144,148.953,-23.7832,4.34852,175.707,-28.6874,-0.152708,193.613,-34.5045,-5.19431,133.324,-40.3366,-5.74155,154.491,-50.5331,-7.29781,173.033,-57.3439,-4.75019,110.877,-53.4343,-15.1947,127.277,-62.382,-16.7931,137.798,-75.7824,-21.2712,89.545,61.7266,-3.88889,124.561,55.3838,-10.0204,128.527,43.9186,-36.4994,38.4146,-0.846303,4.18603,51.2908,44.8405,-4.32032,35.6867,-22.567,-12.4106,-0.083441,1.13377,0.218106
4,1,0.0025998,0.000445661,0.0103892,0.0184471,0.00331613,0.00203501,0.000270816,0.129013,104.344,6.66376,18.7668,96.9221,-13.105,11.3901,88.3345,-25.6498,-0.97977,83.1,-38.5026,-12.0289,148.66,2.78798,19.7856,171.225,-1.62894,18.9795,191.474,-4.66625,17.9758,148.941,-23.7536,4.4048,175.7,-28.6511,-0.0859361,193.613,-34.4642,-5.11792,133.326,-40.3128,-5.6873,154.491,-50.5056,-7.23515,173.039,-57.3074,-4.68293,110.885,-53.4208,-15.1567,127.29,-62.3609,-16.7423,137.813,-75.76,-21.2216,89.6193,61.7163,-3.93801,124.669,55.1698,-10.265,128.111,43.4735,-36.8902,38.3998,-0.84664,4.18221,51.3016,44.8521,-4.32086,35.684,-22.5686,-12.4102,-0.0916449,1.12379,0.218306
4,1,0.00256693,0.000466992,0.0104023,0.0184923,0.00338563,0.00204441,0.000282696,0.12924,104.323,6.68365,18.7951,96.91,-13.0859,11.4114,88.3256,-25.6369,-0.959425,83.0999,-38.4949,-12.0095,148.637,2.81914,19.8303,171.206,-1.5913,19.0261,191.459,-4.61953,18.0339,148.93,-23.7237,4.45824,175.692,-28.6145,-0.0223933,193.613,-34.4234,-5.04528,133.328,-40.2887,-5.63523,154.492,-50.4777,-7.17524,173.046,-57.2706,-4.61881,110.894,-53.4071,-15.1206,127.303,-62.3395,-16.6936,137.827,-75.7373,-21.1744,89.6933,61.7056,-3.98726,124.772,54.9558,-10.5091,127.694,43.037,-37.2711,38.3854,-0.846999,4.17833,51.3126,44.8637,-4.32141,35.6814,-22.5703,-12.4099,-0.0999764,1.11375,0.218525
4,1,0.00253877,0.000542915,0.0104415,0.0185991,0.00349095,0.0020515,0.000294633,0.12933,104.302,6.70375,18.8217,96.8987,-13.0667,11.4308,88.317,-25.624,-0.940349,83.1001,-38.4872,-11.9913,148.616,2.85073,19.872,171.187,-1.55322,19.0695,191.444,-4.57232,18.0886,148.919,-23.6933,4.50875,175.686,-28.5773,0.0378102,193.614,-34.382,-4.97653,133.331,-40.2643,-5.58543,154.492,-50.4494,-7.11819,173.054,-57.2334,-4.55795,110.903,-53.3932,-15.0863,127.316,-62.3177,-16.6471,137.843,-75.7141,-21.1296,89.7671,61.6946,-4.03666,124.87,54.7417,-10.7526,127.277,42.6096,-37.6419,38.3717,-0.84738,4.17441,51.3236,44.8755,-4.32198,35.6789,-22.5719,-12.4096,-0.108438,1.10364,0.218763
4,1,0.00251465,0.000677036,0.0105072,0.0187626,0.003628,0.0020566,0.000306554,0.129286,104.283,6.72403,18.8464,96.8883,-13.0472,11.448,88.3087,-25.611,-0.922581,83.1006,-38.4792,-11.9744,148.596,2.88274,19.9108,171.169,-1.51475,19.1095,191.429,-4.52463,18.1397,148.909,-23.6625,4.55624,175.68,-28.5397,0.0945705,193.615,-34.3401,-4.91177,133.333,-40.2397,-5.53799,154.493,-50.4207,-7.06411,173.062,-57.196,-4.50045,110.912,-53.379,-15.0541,127.329,-62.2957,-16.6029,137.858,-75.6907,-21.0874,89.8405,61.6834,-4.08622,124.963,54.5279,-10.9953,126.861,42.1913,-38.0025,38.3584,-0.847785,4.17046,51.3347,44.8872,-4.32256,35.6763,-22.5735,-12.4093,-0.117031,1.09347,0.219022
